   6.5429688e-01   6.2500000e-01   6.0058594e-01   5.7617188e-01   5.5664062e-01   5.3710938e-01   5.1757812e-01   4.9804688e-01   4.8339844e-01   4.7363281e-01   4.5898438e-01   4.4921875e-01   4.3945312e-01   4.2968750e-01   4.1992188e-01   4.1015625e-01   4.0039062e-01   3.9550781e-01   3.8574219e-01   3.7597656e-01   3.7109375e-01   3.6132812e-01   3.5644531e-01   3.5644531e-01   3.4179688e-01   3.4179688e-01   3.4179688e-01   3.3203125e-01   3.3203125e-01   3.2714844e-01   3.2226562e-01   3.1738281e-01   3.1738281e-01   3.1738281e-01   3.1250000e-01   3.0761719e-01   3.1250000e-01   3.0761719e-01   3.0761719e-01   3.1250000e-01   3.1738281e-01   3.2714844e-01   3.4179688e-01   3.6621094e-01   3.9062500e-01   4.1503906e-01   4.3945312e-01   4.7851562e-01   5.0781250e-01   5.4199219e-01   5.7128906e-01   6.0546875e-01   6.3964844e-01   6.6894531e-01   7.0312500e-01   7.2265625e-01   7.4707031e-01   7.6660156e-01   7.8613281e-01   8.0078125e-01   8.1542969e-01   8.2031250e-01   8.2519531e-01   8.2519531e-01   8.2519531e-01   8.2031250e-01   8.1542969e-01   8.0566406e-01   8.0078125e-01   7.9101562e-01   7.8613281e-01   7.7636719e-01   7.6660156e-01   7.5683594e-01   7.4707031e-01   7.3730469e-01   7.3242188e-01   7.2265625e-01   7.0800781e-01   7.0312500e-01   6.9335938e-01   6.8359375e-01   6.7382812e-01   6.6406250e-01   6.5917969e-01   6.4941406e-01   6.3964844e-01   6.2988281e-01   6.2011719e-01   6.1523438e-01   6.0058594e-01   5.9082031e-01   5.8593750e-01   5.7128906e-01   5.6640625e-01   5.5664062e-01   5.4199219e-01   5.3710938e-01   5.2246094e-01   5.1269531e-01   4.9804688e-01   4.9316406e-01   4.8828125e-01   4.8339844e-01   4.7851562e-01   4.7363281e-01   4.6875000e-01   4.6386719e-01   4.5410156e-01   4.4921875e-01   4.3945312e-01   4.3457031e-01   4.2480469e-01   4.1992188e-01   4.1503906e-01   4.1015625e-01   4.0039062e-01   4.0039062e-01   3.9062500e-01   3.8574219e-01   3.8085938e-01   3.7597656e-01   3.7109375e-01   3.6621094e-01   3.7109375e-01   3.6621094e-01   3.6621094e-01   3.7597656e-01   3.8574219e-01   4.0527344e-01   4.2968750e-01   4.5410156e-01   4.8828125e-01   5.2246094e-01   5.5664062e-01   6.0058594e-01   6.3964844e-01   6.8359375e-01   7.2753906e-01   7.6660156e-01   8.0566406e-01   8.4472656e-01   8.7402344e-01   9.0332031e-01   9.2773438e-01   9.5703125e-01   9.8144531e-01   9.9609375e-01   1.0107422e+00   1.0205078e+00   1.0253906e+00   1.0351562e+00   1.0351562e+00   1.0302734e+00   1.0253906e+00   1.0156250e+00   1.0058594e+00   9.9609375e-01   9.8144531e-01   9.7167969e-01   9.5703125e-01   9.4238281e-01   9.2773438e-01   9.1308594e-01   8.9843750e-01   8.8378906e-01   8.6914062e-01   8.5449219e-01   8.3984375e-01   8.2519531e-01   8.0566406e-01   7.9101562e-01   7.8125000e-01   7.6171875e-01   7.4707031e-01   7.3730469e-01   7.1777344e-01   7.0312500e-01   6.9335938e-01   6.7871094e-01   6.6406250e-01   6.4941406e-01   6.3964844e-01   6.2988281e-01   6.1035156e-01   6.0058594e-01   5.8593750e-01   5.7617188e-01   5.6152344e-01   5.5175781e-01   5.3710938e-01   5.2734375e-01   5.2246094e-01   5.0781250e-01   4.9804688e-01   4.8828125e-01   4.8339844e-01   4.7363281e-01   4.6386719e-01   4.5898438e-01   4.4921875e-01   4.3945312e-01   4.3457031e-01   4.2480469e-01   4.1992188e-01   4.1503906e-01   4.0527344e-01   4.0039062e-01   3.9550781e-01   3.9550781e-01   3.9062500e-01   3.9062500e-01   3.9550781e-01   4.0527344e-01   4.1992188e-01   4.3945312e-01   4.6386719e-01   4.9316406e-01   5.2734375e-01   5.6152344e-01   5.9570312e-01   6.3476562e-01   6.7871094e-01   7.1777344e-01   7.5683594e-01   7.8613281e-01   8.2031250e-01   8.5449219e-01   8.8378906e-01   9.0820312e-01   9.3261719e-01   9.5703125e-01   9.7656250e-01   9.9121094e-01   1.0009766e+00   1.0107422e+00   1.0156250e+00   1.0156250e+00   1.0107422e+00   1.0058594e+00   9.9609375e-01   9.8632812e-01   9.7167969e-01   9.5703125e-01   9.4238281e-01   9.2285156e-01   9.0820312e-01   8.9355469e-01   8.7402344e-01   8.5937500e-01   8.4472656e-01   8.2519531e-01   8.1054688e-01   7.9101562e-01   7.7636719e-01   7.6171875e-01   7.4707031e-01   7.2753906e-01   7.1777344e-01   7.0312500e-01   6.8847656e-01   6.7382812e-01   6.5917969e-01   6.4453125e-01   6.2988281e-01   6.1523438e-01   6.0546875e-01   5.9082031e-01   5.8105469e-01   5.6640625e-01   5.5664062e-01   5.4687500e-01   5.3222656e-01   5.2246094e-01   5.1269531e-01   5.0292969e-01   4.9804688e-01   4.8339844e-01   4.7851562e-01   4.6875000e-01   4.5898438e-01   4.5410156e-01   4.4433594e-01   4.3457031e-01   4.2968750e-01   4.2480469e-01   4.1992188e-01   4.1015625e-01   4.0039062e-01   3.9550781e-01   3.9062500e-01   3.8085938e-01   3.7597656e-01   3.7109375e-01   3.6621094e-01   3.6132812e-01   3.5644531e-01   3.5156250e-01   3.4667969e-01   3.4179688e-01   3.3691406e-01   3.3691406e-01   3.4179688e-01   3.4667969e-01   3.5644531e-01   3.7597656e-01   3.9550781e-01   4.2480469e-01   4.5898438e-01   4.9316406e-01   5.3222656e-01   5.7128906e-01   6.1523438e-01   6.5429688e-01   6.9335938e-01   7.3242188e-01   7.7148438e-01   8.0566406e-01   8.3496094e-01   8.6914062e-01   8.9843750e-01   9.2285156e-01   9.4238281e-01   9.5703125e-01   9.7167969e-01   9.8144531e-01   9.9121094e-01   9.9121094e-01   9.9121094e-01   9.9121094e-01   9.8632812e-01   9.7656250e-01   9.6679688e-01   9.5703125e-01   9.4238281e-01   9.2773438e-01   9.1308594e-01   8.9843750e-01   8.7890625e-01   8.6425781e-01   8.4472656e-01   8.2519531e-01   8.1054688e-01   7.9101562e-01   7.7148438e-01   7.5683594e-01   7.4218750e-01   7.2753906e-01   7.0800781e-01   6.9824219e-01   6.7871094e-01   6.6894531e-01   6.5429688e-01   6.3964844e-01   6.2988281e-01   6.1523438e-01   6.0058594e-01   5.8593750e-01   5.7617188e-01   5.6152344e-01   5.4687500e-01   5.3710938e-01   5.2246094e-01   5.1269531e-01   5.0292969e-01   4.9316406e-01   4.7851562e-01   4.7851562e-01   4.6386719e-01   4.5898438e-01   4.4921875e-01   4.4433594e-01   4.3457031e-01   4.2480469e-01   4.1992188e-01   4.1503906e-01   4.0527344e-01   4.0039062e-01   3.9550781e-01   3.8574219e-01   3.8085938e-01   3.7597656e-01   3.7109375e-01   3.6621094e-01   3.6132812e-01   3.5156250e-01   3.5156250e-01   3.4667969e-01   3.4667969e-01   3.4179688e-01   3.4179688e-01   3.4667969e-01   3.5644531e-01   3.6621094e-01   3.8574219e-01   4.0527344e-01   4.3457031e-01   4.6386719e-01   4.9804688e-01   5.3222656e-01   5.7128906e-01   6.1035156e-01   6.4941406e-01   6.7871094e-01   7.1777344e-01   7.4707031e-01   7.7636719e-01   8.0078125e-01   8.2519531e-01   8.4960938e-01   8.6914062e-01   8.8378906e-01   8.9355469e-01   8.9843750e-01   9.0332031e-01   9.0332031e-01   8.9843750e-01   8.9355469e-01   8.8867188e-01   8.7890625e-01   8.7402344e-01   8.6425781e-01   8.4960938e-01   8.3984375e-01   8.3007812e-01   8.1542969e-01   8.0566406e-01   7.9101562e-01   7.7636719e-01   7.6660156e-01   7.5195312e-01   7.4218750e-01   7.2753906e-01   7.1289062e-01   7.0800781e-01   6.9335938e-01   6.7871094e-01   6.6894531e-01   6.5429688e-01   6.4453125e-01   6.2988281e-01   6.2011719e-01   6.1035156e-01   5.9570312e-01   5.8593750e-01   5.7617188e-01   5.6640625e-01   5.5175781e-01   5.4199219e-01   5.3710938e-01   5.2246094e-01   5.1757812e-01   5.0781250e-01   4.9804688e-01   4.9316406e-01   4.8339844e-01   4.7363281e-01   4.6875000e-01   4.6386719e-01   4.5410156e-01   4.4921875e-01   4.4433594e-01   4.3457031e-01   4.2480469e-01   4.1992188e-01   4.1503906e-01   4.0527344e-01   4.0039062e-01   3.9550781e-01   3.8574219e-01   3.8085938e-01   3.8085938e-01   3.7109375e-01   3.6621094e-01   3.6132812e-01   3.5644531e-01   3.5644531e-01   3.5644531e-01   3.6132812e-01   3.7109375e-01   3.8574219e-01   4.0527344e-01   4.3457031e-01   4.5898438e-01   4.9316406e-01   5.3222656e-01   5.6640625e-01   6.0546875e-01   6.4453125e-01   6.8847656e-01   7.2753906e-01   7.6171875e-01   8.0078125e-01   8.3496094e-01   8.6425781e-01   8.8867188e-01   9.1308594e-01   9.3261719e-01   9.5214844e-01   9.7167969e-01   9.8144531e-01   9.9121094e-01   9.9121094e-01   9.9121094e-01   9.8632812e-01   9.8144531e-01   9.7167969e-01   9.5703125e-01   9.4238281e-01   9.3261719e-01   9.1308594e-01   8.9843750e-01   8.8378906e-01   8.6914062e-01   8.5449219e-01   8.3984375e-01   8.3007812e-01   8.1542969e-01   8.0078125e-01   7.8613281e-01   7.7148438e-01   7.6171875e-01   7.4707031e-01   7.3242188e-01   7.1777344e-01   7.0312500e-01   6.8847656e-01   6.7871094e-01   6.6406250e-01   6.4941406e-01   6.3476562e-01   6.2011719e-01   6.1035156e-01   5.9570312e-01   5.7617188e-01   5.6152344e-01   5.4687500e-01   5.3710938e-01   5.2246094e-01   5.0781250e-01   4.9804688e-01   4.8339844e-01   4.7363281e-01   4.6386719e-01   4.5410156e-01   4.4433594e-01   4.3457031e-01   4.2480469e-01   4.1992188e-01   4.1503906e-01   4.1015625e-01   4.0039062e-01   3.9550781e-01   3.9062500e-01   3.8574219e-01   3.8085938e-01   3.7597656e-01   3.7109375e-01   3.6621094e-01   3.6132812e-01   3.6132812e-01   3.5644531e-01   3.5644531e-01   3.5156250e-01   3.4667969e-01   3.4667969e-01   3.3691406e-01   3.3691406e-01   3.3203125e-01   3.3203125e-01   3.3691406e-01   3.4179688e-01   3.5156250e-01   3.6132812e-01   3.8085938e-01   4.1015625e-01   4.3945312e-01   4.7363281e-01   5.0781250e-01   5.4199219e-01   5.8593750e-01   6.2011719e-01   6.5429688e-01   6.9335938e-01   7.2753906e-01   7.5683594e-01   7.8613281e-01   8.1054688e-01   8.3984375e-01   8.5937500e-01   8.7402344e-01   8.9355469e-01   9.0332031e-01   9.0820312e-01   9.1796875e-01   9.1308594e-01   9.1308594e-01   9.0820312e-01   8.9843750e-01   8.8867188e-01   8.7890625e-01   8.6425781e-01   8.5449219e-01   8.3984375e-01   8.3007812e-01   8.1542969e-01   8.0566406e-01   7.9101562e-01   7.8125000e-01   7.7148438e-01   7.5683594e-01   7.4707031e-01   7.3730469e-01   7.2265625e-01   7.1289062e-01   7.0312500e-01   6.8847656e-01   6.7382812e-01   6.6406250e-01   6.5429688e-01   6.4453125e-01   6.2988281e-01   6.2011719e-01   6.1035156e-01   5.9570312e-01   5.8593750e-01   5.7617188e-01   5.6640625e-01   5.4687500e-01   5.4199219e-01   5.2734375e-01   5.1757812e-01   5.0292969e-01   4.8828125e-01   4.7851562e-01   4.6875000e-01   4.5410156e-01   4.4921875e-01   4.3945312e-01   4.2968750e-01   4.2480469e-01   4.1503906e-01   4.0527344e-01   4.0039062e-01   3.9062500e-01   3.8574219e-01   3.7597656e-01   3.6621094e-01   3.5644531e-01   3.4667969e-01   3.4179688e-01   3.3691406e-01   3.2714844e-01   3.1738281e-01   3.0761719e-01   3.0273438e-01   2.9785156e-01   2.9296875e-01   2.9296875e-01   2.8808594e-01   2.8808594e-01   2.8808594e-01   2.8808594e-01   2.8808594e-01   2.8808594e-01   2.9296875e-01   2.9785156e-01   3.0273438e-01   3.2226562e-01   3.4667969e-01   3.7109375e-01   4.0039062e-01   4.2968750e-01   4.6875000e-01   4.9804688e-01   5.3222656e-01   5.6640625e-01   6.0058594e-01   6.3964844e-01   6.6894531e-01   6.9824219e-01   7.2753906e-01   7.5195312e-01   7.7636719e-01   7.9589844e-01   8.0566406e-01   8.2031250e-01   8.2519531e-01   8.3496094e-01   8.3496094e-01   8.3496094e-01   8.3496094e-01   8.3007812e-01   8.3007812e-01   8.2031250e-01   8.1542969e-01   8.0566406e-01   8.0078125e-01   7.9101562e-01   7.8125000e-01   7.7148438e-01   7.6171875e-01   7.5195312e-01   7.4218750e-01   7.2753906e-01   7.1777344e-01   7.0800781e-01   6.9824219e-01   6.8847656e-01   6.7871094e-01   6.6406250e-01   6.5429688e-01   6.3964844e-01   6.2988281e-01   6.2011719e-01   6.0546875e-01   5.9570312e-01   5.8105469e-01   5.7128906e-01   5.5664062e-01   5.4687500e-01   5.3710938e-01   5.2734375e-01   5.1757812e-01   5.0781250e-01   4.9804688e-01   4.8828125e-01   4.7851562e-01   4.6875000e-01   4.6386719e-01   4.5410156e-01   4.4433594e-01   4.3945312e-01   4.2480469e-01   4.1992188e-01   4.1015625e-01   4.0527344e-01   4.0039062e-01   3.9062500e-01   3.8574219e-01   3.8085938e-01   3.7597656e-01   3.7109375e-01   3.6621094e-01   3.6132812e-01   3.6132812e-01   3.5156250e-01   3.4667969e-01   3.4667969e-01   3.4179688e-01   3.4179688e-01   3.3691406e-01   3.2714844e-01   3.3203125e-01   3.2714844e-01   3.2226562e-01   3.1738281e-01   3.1738281e-01   3.1738281e-01   3.1738281e-01   3.1738281e-01   3.1738281e-01   3.1738281e-01   3.2226562e-01   3.3691406e-01   3.4667969e-01   3.7109375e-01   3.9550781e-01   4.1992188e-01   4.4433594e-01   4.7363281e-01   5.0781250e-01   5.3710938e-01   5.6152344e-01   5.9082031e-01   6.2500000e-01   6.5429688e-01   6.7871094e-01   7.0312500e-01   7.2265625e-01   7.4218750e-01   7.5683594e-01   7.6660156e-01   7.7636719e-01   7.7636719e-01   7.7636719e-01   7.7636719e-01   7.6660156e-01   7.6171875e-01   7.5195312e-01   7.4218750e-01   7.3730469e-01   7.2753906e-01   7.1777344e-01   7.1289062e-01   7.0312500e-01   6.9824219e-01   6.8847656e-01   6.8847656e-01   6.8359375e-01   6.7382812e-01   6.6894531e-01   6.5917969e-01   6.5917969e-01   6.4941406e-01   6.4453125e-01   6.3476562e-01   6.3476562e-01   6.2500000e-01   6.2011719e-01   6.1035156e-01   6.0546875e-01   6.0058594e-01   5.9570312e-01   5.8593750e-01   5.7617188e-01   5.7128906e-01   5.6640625e-01   5.6152344e-01   5.5175781e-01   5.4687500e-01   5.3710938e-01   5.2734375e-01   5.2246094e-01   5.1269531e-01   5.0292969e-01   4.9804688e-01   4.9316406e-01   4.8339844e-01   4.7851562e-01   4.7363281e-01   4.6386719e-01   4.6386719e-01   4.5410156e-01   4.4921875e-01   4.4433594e-01   4.3945312e-01   4.3945312e-01   4.3457031e-01   4.3457031e-01   4.2968750e-01   4.2968750e-01   4.2968750e-01   4.2480469e-01   4.2480469e-01   4.2480469e-01   4.1992188e-01   4.1992188e-01   4.1503906e-01   4.1503906e-01   4.1503906e-01   4.1015625e-01   4.1015625e-01   4.0527344e-01   4.0039062e-01   4.0527344e-01   4.0527344e-01   4.0527344e-01   4.1015625e-01   4.1992188e-01   4.3457031e-01   4.4921875e-01   4.6875000e-01   4.8828125e-01   5.1269531e-01   5.3710938e-01   5.5664062e-01   5.8105469e-01   6.0546875e-01   6.2988281e-01   6.5429688e-01   6.7382812e-01   6.9335938e-01   7.0312500e-01   7.1777344e-01   7.2753906e-01   7.3242188e-01   7.3730469e-01   7.3242188e-01   7.3730469e-01   7.3242188e-01   7.2753906e-01   7.1777344e-01   7.0800781e-01   7.0312500e-01   6.9335938e-01   6.7871094e-01   6.6894531e-01   6.5917969e-01   6.4941406e-01   6.3476562e-01   6.2500000e-01   6.1523438e-01   6.0546875e-01   5.9570312e-01   5.8105469e-01   5.7617188e-01   5.6640625e-01   5.5664062e-01   5.4687500e-01   5.3710938e-01   5.3222656e-01   5.2246094e-01   5.1269531e-01   5.0292969e-01   4.9804688e-01   4.8828125e-01   4.7851562e-01   4.7363281e-01   4.6875000e-01   4.5898438e-01   4.5410156e-01   4.4921875e-01   4.3945312e-01   4.3457031e-01   4.3457031e-01   4.2480469e-01   4.1992188e-01   4.1503906e-01   4.1015625e-01   4.0527344e-01   4.0527344e-01   4.0039062e-01   3.9550781e-01   3.9062500e-01   3.9062500e-01   3.8574219e-01   3.8574219e-01   3.8085938e-01   3.8085938e-01   3.8085938e-01   3.7597656e-01   3.7597656e-01   3.7597656e-01   3.7597656e-01   3.7109375e-01   3.7109375e-01   3.7109375e-01   3.7109375e-01   3.6621094e-01   3.7109375e-01   3.7109375e-01   3.7597656e-01   3.8085938e-01   3.9550781e-01   4.1015625e-01   4.2480469e-01   4.4433594e-01   4.6875000e-01   4.9316406e-01   5.1757812e-01   5.4199219e-01   5.6640625e-01   5.9082031e-01   6.1523438e-01   6.3964844e-01   6.5917969e-01   6.7871094e-01   6.9824219e-01   7.0800781e-01   7.1777344e-01   7.2753906e-01   7.3242188e-01   7.3242188e-01   7.3730469e-01   7.3730469e-01   7.3730469e-01   7.3730469e-01   7.3242188e-01   7.2753906e-01   7.2265625e-01   7.1777344e-01   7.1777344e-01   7.1289062e-01   7.0800781e-01   7.0312500e-01   6.9824219e-01   6.9335938e-01   6.8847656e-01   6.7871094e-01   6.7382812e-01   6.6894531e-01   6.6406250e-01   6.5429688e-01   6.4941406e-01   6.4453125e-01   6.3476562e-01   6.2988281e-01   6.2011719e-01   6.1523438e-01   6.0546875e-01   6.0058594e-01   5.9082031e-01   5.8105469e-01   5.7617188e-01   5.6640625e-01   5.5664062e-01   5.5175781e-01   5.4687500e-01   5.3710938e-01   5.3710938e-01   5.3710938e-01   5.3222656e-01   5.3222656e-01   5.2734375e-01   5.2246094e-01   5.1757812e-01   5.1269531e-01   5.0781250e-01   5.0292969e-01   4.9804688e-01   4.8828125e-01   4.8339844e-01   4.7851562e-01   4.7363281e-01   4.6875000e-01   4.6386719e-01   4.5898438e-01   4.5410156e-01   4.4921875e-01   4.4433594e-01   4.3945312e-01   4.3457031e-01   4.2968750e-01   4.2480469e-01   4.2480469e-01   4.2480469e-01   4.2480469e-01   4.2968750e-01   4.3945312e-01   4.4921875e-01   4.6875000e-01   4.9316406e-01   5.1757812e-01   5.4687500e-01   5.8105469e-01   6.1523438e-01   6.4941406e-01   6.8359375e-01   7.1777344e-01   7.5195312e-01   7.8125000e-01   8.1054688e-01   8.3984375e-01   8.6425781e-01   8.8378906e-01   9.0820312e-01   9.2285156e-01   9.3750000e-01   9.4726562e-01   9.5703125e-01   9.6191406e-01   9.5703125e-01   9.5703125e-01   9.5703125e-01   4.8339844e-01   9.5214844e-01   9.3750000e-01   9.2773438e-01   9.0820312e-01   8.9355469e-01   8.7890625e-01   8.6425781e-01   8.4960938e-01   8.3496094e-01   8.2031250e-01   8.0566406e-01   7.9101562e-01   7.7636719e-01   7.6171875e-01   7.5195312e-01   7.3730469e-01   7.2753906e-01   7.1289062e-01   7.0312500e-01   6.8847656e-01   6.7382812e-01   6.6406250e-01   6.4941406e-01   6.3964844e-01   6.2500000e-01   6.1035156e-01   6.0058594e-01   5.8593750e-01   5.7128906e-01   5.6152344e-01   5.5175781e-01   5.4199219e-01   5.2734375e-01   5.1757812e-01   5.1269531e-01   4.9804688e-01   4.9316406e-01   4.8339844e-01   4.7363281e-01   4.6386719e-01   4.5410156e-01   4.4433594e-01   4.3457031e-01   4.2968750e-01   4.1992188e-01   4.1503906e-01   4.0527344e-01   3.9550781e-01   3.9062500e-01   3.8085938e-01   3.7597656e-01   3.6621094e-01   3.6621094e-01   3.5644531e-01   3.5156250e-01   3.4667969e-01   3.4179688e-01   3.3691406e-01   3.3203125e-01   3.2714844e-01   3.2714844e-01   3.2226562e-01   3.2226562e-01   3.2226562e-01   3.2714844e-01   3.3203125e-01   3.4667969e-01   3.6621094e-01   3.9062500e-01   4.1503906e-01   4.4433594e-01   4.7851562e-01   5.1269531e-01   5.5175781e-01   5.8105469e-01   6.2011719e-01   6.5429688e-01   6.9335938e-01   7.2265625e-01   7.5195312e-01   7.7636719e-01   8.0566406e-01   8.2519531e-01   8.4472656e-01   8.5449219e-01   8.6914062e-01   8.7402344e-01   8.7890625e-01   8.7890625e-01   8.7402344e-01   8.6914062e-01   8.6425781e-01   8.5937500e-01   8.4960938e-01   8.3984375e-01   8.3007812e-01   8.2031250e-01   8.1054688e-01   8.0078125e-01   7.9101562e-01   7.7636719e-01   7.6660156e-01   7.6171875e-01   7.4707031e-01   7.4218750e-01   7.2753906e-01   7.1777344e-01   7.0800781e-01   6.9824219e-01   6.8847656e-01   6.7382812e-01   6.6406250e-01   6.5429688e-01   6.4941406e-01   6.3964844e-01   6.2988281e-01   6.2011719e-01   6.1035156e-01   5.9570312e-01   5.9082031e-01   5.7617188e-01   5.7128906e-01   5.6152344e-01   5.5175781e-01   5.4687500e-01   5.3222656e-01   5.2734375e-01   5.2246094e-01   5.1269531e-01   5.0781250e-01   5.0292969e-01   4.9316406e-01   4.8828125e-01   4.8339844e-01   4.7851562e-01   4.7363281e-01   4.6875000e-01   4.6386719e-01   4.5898438e-01   4.5410156e-01   4.4921875e-01   4.4433594e-01   4.3945312e-01   4.3945312e-01   4.3457031e-01   4.3457031e-01   4.2968750e-01   4.2968750e-01   4.3457031e-01   4.3945312e-01   4.4921875e-01   4.6875000e-01   4.8339844e-01   5.1269531e-01   5.4199219e-01   5.7617188e-01   6.0546875e-01   6.4453125e-01   6.8359375e-01   7.1777344e-01   7.4707031e-01   7.8613281e-01   8.1542969e-01   8.3984375e-01   8.6425781e-01   8.9355469e-01   9.1308594e-01   9.3261719e-01   9.4726562e-01   9.6191406e-01   9.7167969e-01   9.7656250e-01   9.8144531e-01   9.7656250e-01   9.7167969e-01   9.6679688e-01   9.6191406e-01   9.4726562e-01   9.4238281e-01   9.2285156e-01   9.1796875e-01   9.0332031e-01   8.8867188e-01   8.7402344e-01   8.6425781e-01   8.4960938e-01   8.3496094e-01   8.2031250e-01   8.1054688e-01   7.9589844e-01   7.8125000e-01   7.7148438e-01   7.5683594e-01   7.4707031e-01   7.3242188e-01   7.1777344e-01   7.0800781e-01   6.9824219e-01   6.8359375e-01   6.7382812e-01   6.5917969e-01   6.4941406e-01   6.3476562e-01   6.2500000e-01   6.1523438e-01   6.0058594e-01   5.9082031e-01   5.8105469e-01   5.6640625e-01   5.5664062e-01   5.4687500e-01   5.3710938e-01   5.3222656e-01   5.1757812e-01   5.1269531e-01   5.0292969e-01   4.9316406e-01   4.8828125e-01   4.8339844e-01   4.7363281e-01   4.6875000e-01   4.5898438e-01   4.5410156e-01   4.4921875e-01   4.4433594e-01   4.3945312e-01   4.3457031e-01   4.3457031e-01   4.2968750e-01   4.2480469e-01   4.1992188e-01   4.1992188e-01   4.1992188e-01   4.1503906e-01   4.1503906e-01   4.1503906e-01   4.1503906e-01   4.2480469e-01   4.3457031e-01   4.5410156e-01   4.7851562e-01   5.0292969e-01   5.4199219e-01   5.7617188e-01   6.0546875e-01   6.4453125e-01   6.8359375e-01   7.2265625e-01   7.5195312e-01   7.9589844e-01   8.2519531e-01   8.5449219e-01   8.7890625e-01   9.0332031e-01   9.2773438e-01   9.4726562e-01   9.6191406e-01   9.8144531e-01   9.8632812e-01   9.9609375e-01   9.9609375e-01   9.9609375e-01   9.9121094e-01   9.8632812e-01   9.7656250e-01   9.7167969e-01   9.5703125e-01   9.4726562e-01   9.3261719e-01   9.2285156e-01   9.0820312e-01   8.9355469e-01   8.7890625e-01   8.6914062e-01   8.5449219e-01   8.3984375e-01   8.3007812e-01   8.1542969e-01   8.0566406e-01   7.9589844e-01   7.8125000e-01   7.6660156e-01   7.5683594e-01   7.4218750e-01   7.3242188e-01   7.1777344e-01   7.0800781e-01   6.9824219e-01   6.8359375e-01   6.7382812e-01   6.5917969e-01   6.4941406e-01   6.3476562e-01   6.2988281e-01   6.1523438e-01   6.0546875e-01   5.9082031e-01   5.8593750e-01   5.7617188e-01   5.6640625e-01   5.6152344e-01   5.5175781e-01   5.4687500e-01   5.4199219e-01   5.3222656e-01   5.2734375e-01   5.1757812e-01   5.1269531e-01   5.0781250e-01   4.9804688e-01   4.9316406e-01   4.8339844e-01   4.7851562e-01   4.7363281e-01   4.6875000e-01   4.6386719e-01   4.6386719e-01   4.5410156e-01   4.4921875e-01   4.4433594e-01   4.3945312e-01   4.3457031e-01   4.3457031e-01   4.2968750e-01   4.2480469e-01   4.2480469e-01   4.2480469e-01   4.3457031e-01   4.3945312e-01   4.5410156e-01   4.7363281e-01   4.9804688e-01   5.2734375e-01   5.5175781e-01   5.9082031e-01   6.2500000e-01   6.5917969e-01   6.9824219e-01   7.2753906e-01   7.6171875e-01   7.9589844e-01   8.2031250e-01   8.4960938e-01   8.6914062e-01   8.8867188e-01   9.0820312e-01   9.1796875e-01   9.3261719e-01   9.3750000e-01   9.4238281e-01   9.4238281e-01   9.4238281e-01   9.3750000e-01   9.3261719e-01   9.2285156e-01   9.0820312e-01   8.9843750e-01   8.8378906e-01   8.6914062e-01   8.5449219e-01   8.3984375e-01   8.2519531e-01   8.1054688e-01   8.0078125e-01   7.8613281e-01   7.7148438e-01   7.5195312e-01   7.4707031e-01   7.3242188e-01   7.1777344e-01   7.0312500e-01   6.9335938e-01   6.7871094e-01   6.6406250e-01   6.5429688e-01   6.3964844e-01   6.2988281e-01   6.1523438e-01   6.0546875e-01   5.9082031e-01   5.8593750e-01   5.7128906e-01   5.5664062e-01   5.5175781e-01   5.3710938e-01   5.2734375e-01   5.2246094e-01   5.1269531e-01   5.0292969e-01   4.9316406e-01   4.8339844e-01   4.7851562e-01   4.7363281e-01   4.6386719e-01   4.5898438e-01   4.5410156e-01   4.4921875e-01   4.4433594e-01   4.3945312e-01   4.3457031e-01   4.3457031e-01   4.3457031e-01   4.2968750e-01   4.2968750e-01   4.3457031e-01   4.3457031e-01   4.3457031e-01   4.3457031e-01   4.3457031e-01   4.3457031e-01   4.2968750e-01   4.2968750e-01   4.2968750e-01   4.2480469e-01   4.2968750e-01   4.2968750e-01   4.3945312e-01   4.5410156e-01   4.6386719e-01   4.8828125e-01   5.1269531e-01   5.3710938e-01   5.6640625e-01   6.0058594e-01   6.3476562e-01   6.7382812e-01   7.0800781e-01   7.3730469e-01   7.7148438e-01   7.9589844e-01   8.2031250e-01   8.4472656e-01   8.6425781e-01   8.7890625e-01   8.9355469e-01   9.0332031e-01   9.1308594e-01   9.1796875e-01   9.1796875e-01   9.1796875e-01   9.0820312e-01   9.0332031e-01   8.9355469e-01   8.8378906e-01   8.7402344e-01   8.6914062e-01   8.5937500e-01   8.4472656e-01   8.3496094e-01   8.3007812e-01   8.1542969e-01   8.0566406e-01   7.9589844e-01   7.8125000e-01   7.6660156e-01   7.5683594e-01   7.4218750e-01   7.3242188e-01   7.1777344e-01   7.0312500e-01   6.9335938e-01   6.7382812e-01   6.6894531e-01   6.5429688e-01   6.3964844e-01   6.3476562e-01   6.2500000e-01   6.1523438e-01   6.0546875e-01   5.9570312e-01   5.8593750e-01   5.7617188e-01   5.6640625e-01   5.5664062e-01   5.4687500e-01   5.3710938e-01   5.2734375e-01   5.1757812e-01   5.1269531e-01   5.0292969e-01   4.9316406e-01   4.8828125e-01   4.7851562e-01   4.7363281e-01   4.6875000e-01   4.6386719e-01   4.5898438e-01   4.5410156e-01   4.4433594e-01   4.4433594e-01   4.3945312e-01   4.3457031e-01   4.3457031e-01   4.2480469e-01   4.1992188e-01   4.1503906e-01   4.1015625e-01   4.0527344e-01   4.0039062e-01   3.9062500e-01   3.9062500e-01   3.9062500e-01   3.9550781e-01   4.0039062e-01   4.1015625e-01   4.2480469e-01   4.4433594e-01   4.6875000e-01   5.0292969e-01   5.3222656e-01   5.6640625e-01   6.0058594e-01   6.3476562e-01   6.6894531e-01   6.9824219e-01   7.2753906e-01   7.5683594e-01   7.7636719e-01   8.0078125e-01   8.2031250e-01   8.3496094e-01   8.4960938e-01   8.5937500e-01   8.6425781e-01   8.6914062e-01   8.6914062e-01   8.6425781e-01   8.5937500e-01   8.5449219e-01   8.4472656e-01   8.3007812e-01   8.2031250e-01   8.1054688e-01   7.9589844e-01   7.8613281e-01   7.7148438e-01   7.5683594e-01   7.4707031e-01   7.3242188e-01   7.1777344e-01   7.0800781e-01   6.9335938e-01   6.8359375e-01   6.7382812e-01   6.5917969e-01   6.4941406e-01   6.3964844e-01   6.2988281e-01   6.2011719e-01   6.0546875e-01   5.9570312e-01   5.8105469e-01   5.7617188e-01   5.6152344e-01   5.5175781e-01   5.4199219e-01   5.3222656e-01   5.2246094e-01   5.1757812e-01   5.0781250e-01   4.9804688e-01   4.8828125e-01   4.8339844e-01   4.7363281e-01   4.6386719e-01   4.5898438e-01   4.5898438e-01   4.4921875e-01   4.4433594e-01   4.3945312e-01   4.3457031e-01   4.2968750e-01   4.2968750e-01   4.2480469e-01   4.2480469e-01   4.2480469e-01   4.1992188e-01   4.1992188e-01   4.1503906e-01   4.1503906e-01   4.1015625e-01   4.1015625e-01   4.0527344e-01   4.0527344e-01   4.0527344e-01   4.0527344e-01   4.1015625e-01   4.2480469e-01   4.3945312e-01   4.5410156e-01   4.7851562e-01   5.0292969e-01   5.2734375e-01   5.5664062e-01   5.8593750e-01   6.1523438e-01   6.4453125e-01   6.7382812e-01   7.0312500e-01   7.2753906e-01   7.5195312e-01   7.6660156e-01   7.8613281e-01   8.0078125e-01   8.1054688e-01   8.1542969e-01   8.2519531e-01   8.2519531e-01   8.2031250e-01   8.2031250e-01   8.1542969e-01   8.0566406e-01   7.9589844e-01   7.8125000e-01   7.7148438e-01   7.5683594e-01   7.4707031e-01   7.3242188e-01   7.1777344e-01   7.0800781e-01   6.9335938e-01   6.8359375e-01   6.7382812e-01   6.5917969e-01   6.4941406e-01   6.3476562e-01   6.2988281e-01   6.1523438e-01   6.0058594e-01   5.9082031e-01   5.8593750e-01   5.7128906e-01   5.6640625e-01   5.5664062e-01   5.4199219e-01   5.3222656e-01   5.2246094e-01   5.1269531e-01   5.0292969e-01   4.9804688e-01   4.8828125e-01   4.8339844e-01   4.6875000e-01   4.6386719e-01   4.5898438e-01   4.4921875e-01   4.4433594e-01   4.3945312e-01   4.3457031e-01   4.2480469e-01   4.1992188e-01   4.1992188e-01   4.1503906e-01   4.0527344e-01   4.0527344e-01   4.0039062e-01   3.9550781e-01   3.9550781e-01   3.9062500e-01   3.9062500e-01   3.8574219e-01   3.8085938e-01   3.8085938e-01   3.7597656e-01   3.7597656e-01   3.7597656e-01   3.7597656e-01   3.7597656e-01   3.8574219e-01   3.9062500e-01   4.0039062e-01   4.1992188e-01   4.3945312e-01   4.5898438e-01   4.8828125e-01   5.2246094e-01   5.5175781e-01   5.8105469e-01   6.2011719e-01   6.5429688e-01   6.8847656e-01   7.1777344e-01   7.4707031e-01   7.8125000e-01   8.0566406e-01   8.3007812e-01   8.4960938e-01   8.6425781e-01   8.7890625e-01   8.8867188e-01   8.9843750e-01   9.0332031e-01   9.0332031e-01   8.9843750e-01   8.9355469e-01   8.8867188e-01   8.7890625e-01   8.6914062e-01   8.5937500e-01   8.4960938e-01   8.3496094e-01   8.2031250e-01   8.1542969e-01   8.0078125e-01   7.8613281e-01   7.7636719e-01   7.6660156e-01   7.5683594e-01   7.4707031e-01   7.3242188e-01   7.2753906e-01   7.1777344e-01   7.0312500e-01   6.9335938e-01   6.8359375e-01   6.7382812e-01   6.6894531e-01   6.5917969e-01   6.4941406e-01   6.3964844e-01   6.3476562e-01   6.2988281e-01   6.2011719e-01   6.1035156e-01   6.0058594e-01   5.9082031e-01   5.8105469e-01   5.7128906e-01   5.6640625e-01   5.5664062e-01   5.4687500e-01   5.3710938e-01   5.3222656e-01   5.2246094e-01   5.1269531e-01   5.0781250e-01   4.9804688e-01   4.9316406e-01   4.8339844e-01   4.8339844e-01   4.7363281e-01   4.6875000e-01   4.6386719e-01   4.5410156e-01   4.5410156e-01   4.5410156e-01   4.5410156e-01   4.4921875e-01   4.4921875e-01   4.4921875e-01   4.5410156e-01   4.6386719e-01   4.7363281e-01   4.8828125e-01   5.0781250e-01   5.3222656e-01   5.6640625e-01   5.9570312e-01   6.3476562e-01   6.7382812e-01   7.1289062e-01   7.4707031e-01   7.8125000e-01   8.2031250e-01   8.5449219e-01   8.8378906e-01   9.1308594e-01   9.4238281e-01   9.6679688e-01   9.8632812e-01   1.0009766e+00   1.0156250e+00   1.0302734e+00   1.0400391e+00   1.0400391e+00   1.0400391e+00   1.0400391e+00   1.0302734e+00   1.0253906e+00   1.0156250e+00   1.0058594e+00   9.9121094e-01   9.7656250e-01   9.6679688e-01   9.4726562e-01   9.3750000e-01   9.2285156e-01   9.0820312e-01   8.9355469e-01   8.7402344e-01   8.5937500e-01   8.4472656e-01   8.3007812e-01   8.1542969e-01   7.9589844e-01   7.8125000e-01   7.6660156e-01   7.5195312e-01   7.3730469e-01   7.2265625e-01   7.0800781e-01   6.9335938e-01   6.7382812e-01   6.5917969e-01   6.4453125e-01   6.2988281e-01   6.1523438e-01   6.0058594e-01   5.8593750e-01   5.7617188e-01   5.6152344e-01   5.5175781e-01   5.3710938e-01   5.2734375e-01   5.1757812e-01   5.0781250e-01   4.9804688e-01   4.8828125e-01   4.7851562e-01   4.7363281e-01   4.6386719e-01   4.5410156e-01   4.4433594e-01   4.3457031e-01   4.3457031e-01   4.2480469e-01   4.1503906e-01   4.1015625e-01   4.0527344e-01   4.0527344e-01   3.9550781e-01   3.9550781e-01   3.9062500e-01   3.8574219e-01   3.8574219e-01   3.8085938e-01   3.7597656e-01   3.7597656e-01   3.7597656e-01   3.7597656e-01   3.8574219e-01   4.0039062e-01   4.1992188e-01   4.3945312e-01   4.6875000e-01   5.0292969e-01   5.3222656e-01   5.6640625e-01   6.0546875e-01   6.4453125e-01   6.8847656e-01   7.2265625e-01   7.5683594e-01   7.9101562e-01   8.2031250e-01   8.4960938e-01   8.7402344e-01   8.9843750e-01   9.1796875e-01   9.3750000e-01   9.5214844e-01   9.6191406e-01   9.7167969e-01   9.7656250e-01   9.7656250e-01   9.7656250e-01   9.6679688e-01   9.6191406e-01   9.5214844e-01   9.3750000e-01   9.2285156e-01   9.1308594e-01   8.9355469e-01   8.7890625e-01   8.6425781e-01   8.4472656e-01   8.2519531e-01   8.1542969e-01   7.9589844e-01   7.7636719e-01   7.6171875e-01   7.4707031e-01   7.2753906e-01   7.0800781e-01   6.9335938e-01   6.7871094e-01   6.5917969e-01   6.4453125e-01   6.2988281e-01   6.1523438e-01   6.0058594e-01   5.8593750e-01   5.7128906e-01   5.5664062e-01   5.4199219e-01   5.2734375e-01   5.1757812e-01   5.0292969e-01   4.9316406e-01   4.8339844e-01   4.7363281e-01   4.6386719e-01   4.5410156e-01   4.4433594e-01   4.3457031e-01   4.2480469e-01   4.1503906e-01   4.0527344e-01   4.0039062e-01   3.9062500e-01   3.8085938e-01   3.7597656e-01   3.6621094e-01   3.5644531e-01   3.5156250e-01   3.4179688e-01   3.3691406e-01   3.3203125e-01   3.2714844e-01   3.1738281e-01   3.1250000e-01   3.1250000e-01   3.0761719e-01   3.1250000e-01   3.1738281e-01   3.2226562e-01   3.4179688e-01   3.6621094e-01   3.9062500e-01   4.2480469e-01   4.5898438e-01   4.9316406e-01   5.2734375e-01   5.6640625e-01   6.0058594e-01   6.3964844e-01   6.6894531e-01   7.0312500e-01   7.3242188e-01   7.6171875e-01   7.8613281e-01   8.0566406e-01   8.2519531e-01   8.3984375e-01   8.4960938e-01   8.5937500e-01   8.6425781e-01   8.6914062e-01   8.6914062e-01   8.6425781e-01   8.5937500e-01   8.4960938e-01   8.3984375e-01   8.3007812e-01   8.1542969e-01   8.0566406e-01   7.9101562e-01   7.7636719e-01   7.6660156e-01   7.5195312e-01   7.3730469e-01   7.2753906e-01   7.1289062e-01   6.9824219e-01   6.8847656e-01   6.7871094e-01   6.6406250e-01   6.5429688e-01   6.4453125e-01   6.2988281e-01   6.2011719e-01   6.1523438e-01   6.0058594e-01   5.9570312e-01   5.8593750e-01   5.7617188e-01   5.7128906e-01   5.5664062e-01   5.5175781e-01   5.4199219e-01   5.3222656e-01   5.2734375e-01   5.1757812e-01   5.0781250e-01   4.9804688e-01   4.8828125e-01   4.8339844e-01   4.7363281e-01   4.6875000e-01   4.5898438e-01   4.5410156e-01   4.4921875e-01   4.4433594e-01   4.3457031e-01   4.2968750e-01   4.2480469e-01   4.2480469e-01   4.1503906e-01   4.1015625e-01   4.1015625e-01   4.0039062e-01   4.0039062e-01   3.9550781e-01   3.9550781e-01   3.9550781e-01   4.0039062e-01   4.0527344e-01   4.1992188e-01   4.3945312e-01   4.5898438e-01   4.8828125e-01   5.2246094e-01   5.6152344e-01   5.9570312e-01   6.3476562e-01   6.7871094e-01   7.1777344e-01   7.5195312e-01   7.8613281e-01   8.2031250e-01   8.4960938e-01   8.8378906e-01   9.0820312e-01   9.2773438e-01   9.5214844e-01   9.6679688e-01   9.7656250e-01   9.9121094e-01   9.9609375e-01   1.0009766e+00   1.0009766e+00   9.9609375e-01   9.9121094e-01   9.8144531e-01   9.7167969e-01   9.5703125e-01   9.4238281e-01   9.2773438e-01   9.1308594e-01   8.9843750e-01   8.8378906e-01   8.6914062e-01   8.4960938e-01   8.3496094e-01   8.2031250e-01   8.0566406e-01   7.9101562e-01   7.7636719e-01   7.5683594e-01   7.4218750e-01   7.2753906e-01   7.1289062e-01   6.9824219e-01   6.8359375e-01   6.6894531e-01   6.5429688e-01   6.3964844e-01   6.2500000e-01   6.1035156e-01   5.9570312e-01   5.8593750e-01   5.7128906e-01   5.5664062e-01   5.4687500e-01   5.3222656e-01   5.2246094e-01   5.0781250e-01   5.0292969e-01   4.8828125e-01   4.7851562e-01   4.6875000e-01   4.5898438e-01   4.5410156e-01   4.4921875e-01   4.3945312e-01   4.2968750e-01   4.2480469e-01   4.1992188e-01   4.1503906e-01   4.1015625e-01   4.0527344e-01   4.0039062e-01   3.9550781e-01   3.9550781e-01   3.9062500e-01   3.8574219e-01   3.8574219e-01   3.8085938e-01   3.7597656e-01   3.7597656e-01   3.7109375e-01   3.7109375e-01   3.6621094e-01   3.6621094e-01   3.7109375e-01   3.7597656e-01   3.9062500e-01   4.1015625e-01   4.2968750e-01   4.6386719e-01   4.9316406e-01   5.3222656e-01   5.7128906e-01   6.1035156e-01   6.5429688e-01   6.9824219e-01   7.3730469e-01   7.8125000e-01   8.1542969e-01   8.4960938e-01   8.8378906e-01   9.0820312e-01   9.3750000e-01   9.5703125e-01   9.7656250e-01   9.9609375e-01   1.0107422e+00   1.0205078e+00   1.0302734e+00   1.0351562e+00   1.0351562e+00   1.0302734e+00   1.0205078e+00   1.0156250e+00   1.0009766e+00   9.8632812e-01   9.7167969e-01   9.5703125e-01   9.4238281e-01   9.2773438e-01   9.0820312e-01   8.9355469e-01   8.7402344e-01   8.5937500e-01   8.3984375e-01   8.2031250e-01   8.0566406e-01   7.9101562e-01   7.7148438e-01   7.5683594e-01   7.3730469e-01   7.2265625e-01   7.0800781e-01   6.8847656e-01   6.7382812e-01   6.5917969e-01   6.4453125e-01   6.2988281e-01   6.1523438e-01   6.0058594e-01   5.9082031e-01   5.7128906e-01   5.5664062e-01   5.4687500e-01   5.3222656e-01   5.2246094e-01   5.0781250e-01   4.9316406e-01   4.8339844e-01   4.6875000e-01   4.6386719e-01   4.5410156e-01   4.3945312e-01   4.2968750e-01   4.2480469e-01   4.1503906e-01   4.0527344e-01   4.0039062e-01   3.9062500e-01   3.8574219e-01   3.8085938e-01   3.7597656e-01   3.6621094e-01   3.6132812e-01   3.5644531e-01   3.5156250e-01   3.4667969e-01   3.4179688e-01   3.4179688e-01   3.3691406e-01   3.2714844e-01   3.2714844e-01   3.2714844e-01   3.2226562e-01   3.2226562e-01   3.2226562e-01   3.2226562e-01   3.3203125e-01   3.4667969e-01   3.6621094e-01   3.9550781e-01   4.1992188e-01   4.5410156e-01   4.8828125e-01   5.3222656e-01   5.7128906e-01   6.1035156e-01   6.4941406e-01   6.9335938e-01   7.3242188e-01   7.6660156e-01   8.0078125e-01   8.3496094e-01   8.6425781e-01   8.8867188e-01   9.0820312e-01   9.3261719e-01   9.4726562e-01   9.6191406e-01   9.7167969e-01   9.7656250e-01   9.8144531e-01   9.7656250e-01   9.7167969e-01   9.6191406e-01   9.5214844e-01   9.4238281e-01   9.2773438e-01   9.1308594e-01   9.0332031e-01   8.8378906e-01   8.6914062e-01   8.5937500e-01   8.3984375e-01   8.2519531e-01   8.1054688e-01   7.9589844e-01   7.8125000e-01   7.6660156e-01   7.5195312e-01   7.3730469e-01   7.2265625e-01   7.0800781e-01   6.9335938e-01   6.7871094e-01   6.6406250e-01   6.4941406e-01   6.2988281e-01   6.1523438e-01   6.0058594e-01   5.9082031e-01   5.7617188e-01   5.6152344e-01   5.4687500e-01   5.3222656e-01   5.2734375e-01   5.1269531e-01   5.0292969e-01   4.9316406e-01   4.7851562e-01   4.6875000e-01   4.5898438e-01   4.4921875e-01   4.3945312e-01   4.3457031e-01   4.2480469e-01   4.1992188e-01   4.1015625e-01   4.0039062e-01   4.0039062e-01   3.9062500e-01   3.8574219e-01   3.8085938e-01   3.7597656e-01   3.7109375e-01   3.6621094e-01   3.6132812e-01   3.5644531e-01   3.5644531e-01   3.5156250e-01   3.4667969e-01   3.4179688e-01   3.4667969e-01   3.4179688e-01   3.3691406e-01   3.3691406e-01   3.3203125e-01   3.2714844e-01   3.2714844e-01   3.2226562e-01   3.2714844e-01   3.2226562e-01   3.2714844e-01   3.3691406e-01   3.5156250e-01   3.6621094e-01   3.9550781e-01   4.1992188e-01   4.5410156e-01   4.8339844e-01   5.1757812e-01   5.5664062e-01   5.9570312e-01   6.2988281e-01   6.6894531e-01   7.0312500e-01   7.3730469e-01   7.6660156e-01   7.9101562e-01   8.1542969e-01   8.3496094e-01   8.5449219e-01   8.6914062e-01   8.7890625e-01   8.8378906e-01   8.8867188e-01   8.8867188e-01   8.8867188e-01   8.7890625e-01   8.7402344e-01   8.6425781e-01   8.5449219e-01   8.3984375e-01   8.3007812e-01   8.2031250e-01   8.0566406e-01   7.9589844e-01   7.8125000e-01   7.6660156e-01   7.5683594e-01   7.4218750e-01   7.2753906e-01   7.1289062e-01   7.0800781e-01   6.9335938e-01   6.7871094e-01   6.6894531e-01   6.5429688e-01   6.3964844e-01   6.2988281e-01   6.1523438e-01   6.0058594e-01   5.9082031e-01   5.7617188e-01   5.6640625e-01   5.5175781e-01   5.4199219e-01   5.3222656e-01   5.1757812e-01   5.0781250e-01   4.9804688e-01   4.8828125e-01   4.7363281e-01   4.6386719e-01   4.5898438e-01   4.4921875e-01   4.3945312e-01   4.3457031e-01   4.1992188e-01   4.1503906e-01   4.0527344e-01   4.0039062e-01   3.9550781e-01   3.9062500e-01   3.8085938e-01   3.8085938e-01   3.7597656e-01   3.7109375e-01   3.6621094e-01   3.6621094e-01   3.6132812e-01   3.5644531e-01   3.5156250e-01   3.5156250e-01   3.4667969e-01   3.4667969e-01   3.4179688e-01   3.3691406e-01   3.3691406e-01   3.3203125e-01   3.3203125e-01   3.3203125e-01   3.3203125e-01   3.3203125e-01   3.4179688e-01   3.4667969e-01   3.6132812e-01   3.8574219e-01   4.1015625e-01   4.3945312e-01   4.6875000e-01   5.0292969e-01   5.3710938e-01   5.6640625e-01   6.0058594e-01   6.3476562e-01   6.6894531e-01   6.9335938e-01   7.1777344e-01   7.4218750e-01   7.6171875e-01   7.7636719e-01   7.9101562e-01   8.0078125e-01   8.0566406e-01   8.1054688e-01   8.0566406e-01   8.0566406e-01   8.0078125e-01   7.9101562e-01   7.8613281e-01   7.7636719e-01   7.6660156e-01   7.5683594e-01   7.4707031e-01   7.3730469e-01   7.2753906e-01   7.1777344e-01   7.1289062e-01   7.0312500e-01   6.8847656e-01   6.8359375e-01   6.7382812e-01   6.6406250e-01   6.5429688e-01   6.4453125e-01   6.3476562e-01   6.2988281e-01   6.1523438e-01   6.0546875e-01   5.9570312e-01   5.9082031e-01   5.8105469e-01   5.7128906e-01   5.6152344e-01   5.5175781e-01   5.4687500e-01   5.3710938e-01   5.2734375e-01   5.2246094e-01   5.1757812e-01   5.0781250e-01   5.0292969e-01   4.9316406e-01   4.8828125e-01   4.8339844e-01   4.7851562e-01   4.7363281e-01   4.6875000e-01   4.6386719e-01   4.5898438e-01   4.5410156e-01   4.4921875e-01   4.4433594e-01   4.3945312e-01   4.3457031e-01   4.3457031e-01   4.2480469e-01   4.2480469e-01   4.1992188e-01   4.1503906e-01   4.1503906e-01   4.1015625e-01   4.0527344e-01   4.0527344e-01   4.0039062e-01   4.0039062e-01   3.9550781e-01   3.9062500e-01   3.9062500e-01   3.8574219e-01   3.8085938e-01   3.8574219e-01   3.8085938e-01   3.8085938e-01   3.8085938e-01   3.8085938e-01   3.9062500e-01   4.0527344e-01   4.1992188e-01   4.4433594e-01   4.7363281e-01   5.0292969e-01   5.3710938e-01   5.7617188e-01   6.2011719e-01   6.5429688e-01   6.9824219e-01   7.4218750e-01   7.8125000e-01   8.1542969e-01   8.4960938e-01   8.8378906e-01   9.1308594e-01   9.3750000e-01   9.6191406e-01   9.7656250e-01   9.9121094e-01   1.0058594e+00   1.0107422e+00   1.0156250e+00   1.0156250e+00   1.0107422e+00   1.0107422e+00   9.9609375e-01   9.8632812e-01   9.7656250e-01   9.6191406e-01   9.5214844e-01   9.3750000e-01   9.1796875e-01   9.0332031e-01   8.9355469e-01   8.7402344e-01   8.5937500e-01   8.4472656e-01   8.3007812e-01   8.1542969e-01   8.0078125e-01   7.8613281e-01   7.7148438e-01   7.5683594e-01   7.4218750e-01   7.3242188e-01   7.1777344e-01   7.0800781e-01   6.8847656e-01   6.7871094e-01   6.6894531e-01   6.5917969e-01   6.4453125e-01   6.2988281e-01   6.2011719e-01   6.1035156e-01   6.0058594e-01   5.8593750e-01   5.7617188e-01   5.6640625e-01   5.5175781e-01   5.4199219e-01   5.3222656e-01   5.2246094e-01   5.1269531e-01   5.0292969e-01   4.9316406e-01   4.8339844e-01   4.7851562e-01   4.6875000e-01   4.6386719e-01   4.5410156e-01   4.4433594e-01   4.3945312e-01   4.3457031e-01   4.2480469e-01   4.1992188e-01   4.1503906e-01   4.1015625e-01   4.0527344e-01   4.0039062e-01   4.0039062e-01   3.9550781e-01   3.9550781e-01   3.9062500e-01   3.8574219e-01   3.8085938e-01   3.8085938e-01   3.7597656e-01   3.7597656e-01   3.7109375e-01   3.7109375e-01   3.7109375e-01   3.7109375e-01   3.7109375e-01   3.8085938e-01   3.9062500e-01   4.1015625e-01   4.2968750e-01   4.5898438e-01   4.9316406e-01   5.2734375e-01   5.6640625e-01   6.0058594e-01   6.4453125e-01   6.8847656e-01   7.2265625e-01   7.6171875e-01   8.0078125e-01   8.3496094e-01   8.6425781e-01   8.8867188e-01   9.1796875e-01   9.3750000e-01   9.5703125e-01   9.7167969e-01   9.8632812e-01   9.9121094e-01   9.9609375e-01   9.9609375e-01   9.9609375e-01   9.9121094e-01   9.8144531e-01   9.7167969e-01   9.5703125e-01   9.4726562e-01   9.3261719e-01   9.1796875e-01   9.0332031e-01   8.8867188e-01   8.7402344e-01   8.5937500e-01   8.4472656e-01   8.2519531e-01   8.1054688e-01   7.9589844e-01   7.8125000e-01   7.6660156e-01   7.4707031e-01   7.3242188e-01   7.2265625e-01   7.0312500e-01   6.8847656e-01   6.7871094e-01   6.5917969e-01   6.4941406e-01   6.3476562e-01   6.2011719e-01   6.1035156e-01   5.9570312e-01   5.8105469e-01   5.7128906e-01   5.5664062e-01   5.5175781e-01   5.3710938e-01   5.2734375e-01   5.1269531e-01   5.0292969e-01   4.9316406e-01   4.8339844e-01   4.7363281e-01   4.6386719e-01   4.5898438e-01   4.4433594e-01   4.3945312e-01   4.2968750e-01   4.2480469e-01   4.1015625e-01   4.0527344e-01   3.9550781e-01   3.9062500e-01   3.8085938e-01   3.7597656e-01   3.7109375e-01   3.6621094e-01   3.6132812e-01   3.5644531e-01   3.5156250e-01   3.4667969e-01   3.4179688e-01   3.3691406e-01   3.3691406e-01   3.3203125e-01   3.3203125e-01   3.3203125e-01   3.4179688e-01   3.4667969e-01   3.6132812e-01   3.8085938e-01   4.1015625e-01   4.3945312e-01   4.7363281e-01   5.0781250e-01   5.4687500e-01   5.8593750e-01   6.2011719e-01   6.6406250e-01   6.9824219e-01   7.3242188e-01   7.6660156e-01   7.9589844e-01   8.2031250e-01   8.4472656e-01   8.6425781e-01   8.7890625e-01   8.9355469e-01   9.0332031e-01   9.0820312e-01   9.1308594e-01   9.0820312e-01   9.0820312e-01   9.0332031e-01   8.9355469e-01   8.8867188e-01   8.7402344e-01   8.6914062e-01   8.5449219e-01   8.4472656e-01   8.3496094e-01   8.2031250e-01   8.0566406e-01   7.9589844e-01   7.8613281e-01   7.7148438e-01   7.6171875e-01   7.5195312e-01   7.3730469e-01   7.2753906e-01   7.1777344e-01   7.0800781e-01   6.9335938e-01   6.8359375e-01   6.7382812e-01   6.6406250e-01   6.4941406e-01   6.3964844e-01   6.2988281e-01   6.2011719e-01   6.1035156e-01   6.0058594e-01   5.9082031e-01   5.8593750e-01   5.7617188e-01   5.7128906e-01   5.6152344e-01   5.5664062e-01   5.4687500e-01   5.4199219e-01   5.3222656e-01   5.2734375e-01   5.1757812e-01   5.1269531e-01   5.0781250e-01   4.9804688e-01   4.8828125e-01   4.8339844e-01   4.7851562e-01   4.7363281e-01   4.6386719e-01   4.5898438e-01   4.5898438e-01   4.4921875e-01   4.4433594e-01   4.4433594e-01   4.3457031e-01   4.2968750e-01   4.2480469e-01   4.1992188e-01   4.1992188e-01   4.1503906e-01   4.1015625e-01   4.0527344e-01   4.0039062e-01   4.0039062e-01   3.9550781e-01   3.9062500e-01   3.9550781e-01   3.9062500e-01   3.9550781e-01   4.0527344e-01   4.1503906e-01   4.3457031e-01   4.6386719e-01   4.9316406e-01   5.2246094e-01   5.6152344e-01   6.0058594e-01   6.4453125e-01   6.8847656e-01   7.2753906e-01   7.6660156e-01   8.0566406e-01   8.4472656e-01   8.7402344e-01   9.0820312e-01   9.3750000e-01   9.6191406e-01   9.8144531e-01   1.0009766e+00   1.0205078e+00   1.0302734e+00   1.0400391e+00   1.0449219e+00   1.0449219e+00   1.0449219e+00   1.0351562e+00   1.0253906e+00   1.0156250e+00   1.0058594e+00   9.9121094e-01   9.7656250e-01   9.6191406e-01   9.4238281e-01   9.2773438e-01   9.1308594e-01   8.9355469e-01   8.7890625e-01   8.5937500e-01   8.4472656e-01   8.2519531e-01   8.1054688e-01   7.9589844e-01   7.7636719e-01   7.6660156e-01   7.4707031e-01   7.2753906e-01   7.1289062e-01   6.9824219e-01   6.8359375e-01   6.6894531e-01   6.4941406e-01   6.3476562e-01   6.2500000e-01   6.1035156e-01   5.9570312e-01   5.8593750e-01   5.7128906e-01   5.5664062e-01   5.4687500e-01   5.3222656e-01   5.2246094e-01   5.1269531e-01   4.9804688e-01   4.8828125e-01   4.8339844e-01   4.7363281e-01   4.6386719e-01   4.5410156e-01   4.4921875e-01   4.3945312e-01   4.3457031e-01   4.2480469e-01   4.1503906e-01   4.1015625e-01   4.0527344e-01   4.0039062e-01   3.9550781e-01   3.9062500e-01   3.8574219e-01   3.8085938e-01   3.7597656e-01   3.7109375e-01   3.7109375e-01   3.6621094e-01   3.6621094e-01   3.6132812e-01   3.6132812e-01   3.5644531e-01   3.5156250e-01   3.5644531e-01   3.5156250e-01   3.5156250e-01   3.5156250e-01   3.5644531e-01   3.6621094e-01   3.8085938e-01   4.0039062e-01   4.2480469e-01   4.4921875e-01   4.8828125e-01   5.2734375e-01   5.6152344e-01   6.0546875e-01   6.4941406e-01   6.8847656e-01   7.3242188e-01   7.6660156e-01   8.0566406e-01   8.4472656e-01   8.7402344e-01   9.0332031e-01   9.2285156e-01   9.4726562e-01   9.6679688e-01   9.8144531e-01   9.9121094e-01   1.0009766e+00   1.0058594e+00   1.0058594e+00   1.0058594e+00   1.0009766e+00   9.9121094e-01   9.8144531e-01   9.7167969e-01   9.5703125e-01   9.4238281e-01   9.2773438e-01   9.1308594e-01   8.9843750e-01   8.8378906e-01   8.6914062e-01   8.4960938e-01   8.3984375e-01   8.2519531e-01   8.0566406e-01   7.9101562e-01   7.7636719e-01   7.6171875e-01   7.4707031e-01   7.3242188e-01   7.1777344e-01   7.0312500e-01   6.8847656e-01   6.7382812e-01   6.5917969e-01   6.4941406e-01   6.3476562e-01   6.2011719e-01   6.1035156e-01   5.9570312e-01   5.8105469e-01   5.7128906e-01   5.5175781e-01   5.4687500e-01   5.3222656e-01   5.1757812e-01   5.0781250e-01   4.9316406e-01   4.8828125e-01   4.7851562e-01   4.6875000e-01   4.5898438e-01   4.4921875e-01   4.4433594e-01   4.3457031e-01   4.2480469e-01   4.1992188e-01   4.1015625e-01   4.0039062e-01   3.9550781e-01   3.8574219e-01   3.7597656e-01   3.7109375e-01   3.6621094e-01   3.6132812e-01   3.5644531e-01   3.5156250e-01   3.4667969e-01   3.4179688e-01   3.3691406e-01   3.3203125e-01   3.2714844e-01   3.2226562e-01   3.2226562e-01   3.1738281e-01   3.1738281e-01   3.1738281e-01   3.1250000e-01   3.1250000e-01   3.1738281e-01   3.1738281e-01   3.2714844e-01   3.4179688e-01   3.6621094e-01   3.9062500e-01   4.1992188e-01   4.5410156e-01   4.9316406e-01   5.2734375e-01   5.7128906e-01   6.1035156e-01   6.4941406e-01   6.8847656e-01   7.2753906e-01   7.5683594e-01   7.9101562e-01   8.2031250e-01   8.4472656e-01   8.6425781e-01   8.8867188e-01   9.0332031e-01   9.1796875e-01   9.2773438e-01   9.3261719e-01   9.3261719e-01   9.3261719e-01   9.2773438e-01   9.2285156e-01   9.1308594e-01   9.0332031e-01   8.9843750e-01   8.8378906e-01   8.7402344e-01   8.5937500e-01   8.4960938e-01   8.3496094e-01   8.2031250e-01   8.1054688e-01   7.9589844e-01   7.8125000e-01   7.7148438e-01   7.5683594e-01   7.4218750e-01   7.3242188e-01   7.1777344e-01   7.0800781e-01   6.9335938e-01   6.7871094e-01   6.7382812e-01   6.5917969e-01   6.4941406e-01   6.3476562e-01   6.2500000e-01   6.1523438e-01   6.0546875e-01   5.9570312e-01   5.8593750e-01   5.7617188e-01   5.6640625e-01   5.5664062e-01   5.4687500e-01   5.3710938e-01   5.2734375e-01   5.1757812e-01   5.1269531e-01   5.0292969e-01   4.9316406e-01   4.8828125e-01   4.7851562e-01   4.7363281e-01   4.6386719e-01   4.5898438e-01   4.4921875e-01   4.4433594e-01   4.3945312e-01   4.3457031e-01   4.2968750e-01   4.1992188e-01   4.1992188e-01   4.1503906e-01   4.1015625e-01   4.1015625e-01   4.0039062e-01   4.0039062e-01   3.9550781e-01   3.9062500e-01   3.9062500e-01   3.8085938e-01   3.8574219e-01   3.8085938e-01   3.7597656e-01   3.8085938e-01   3.8085938e-01   3.8574219e-01   3.9550781e-01   4.1015625e-01   4.2968750e-01   4.4921875e-01   4.7851562e-01   5.1269531e-01   5.4687500e-01   5.9082031e-01   6.2988281e-01   6.7382812e-01   7.1289062e-01   7.5195312e-01   7.9101562e-01   8.2519531e-01   8.5449219e-01   8.8378906e-01   9.1308594e-01   9.3750000e-01   9.5703125e-01   9.7167969e-01   9.9121094e-01   1.0009766e+00   1.0058594e+00   1.0107422e+00   1.0107422e+00   1.0107422e+00   1.0058594e+00   9.9609375e-01   9.8632812e-01   9.7656250e-01   9.6191406e-01   9.4726562e-01   9.3750000e-01   9.1796875e-01   9.0332031e-01   8.9355469e-01   8.7890625e-01   8.6425781e-01   8.4472656e-01   8.3007812e-01   8.1542969e-01   8.0078125e-01   7.8613281e-01   7.7148438e-01   7.5195312e-01   7.3730469e-01   7.1777344e-01   7.0312500e-01   6.8847656e-01   6.6894531e-01   6.5429688e-01   6.3964844e-01   6.2988281e-01   6.1035156e-01   5.9570312e-01   5.8105469e-01   5.6640625e-01   5.5175781e-01   5.4199219e-01   5.2734375e-01   5.1269531e-01   5.0292969e-01   4.9316406e-01   4.7851562e-01   4.6875000e-01   4.5898438e-01   4.4921875e-01   4.4433594e-01   4.3457031e-01   4.2968750e-01   4.1992188e-01   4.1992188e-01   4.1015625e-01   4.0039062e-01   3.9550781e-01   3.9062500e-01   3.8574219e-01   3.8085938e-01   3.7597656e-01   3.7109375e-01   3.7109375e-01   3.6132812e-01   3.6132812e-01   3.5644531e-01   3.5156250e-01   3.5156250e-01   3.4667969e-01   3.4667969e-01   3.4667969e-01   3.4179688e-01   3.3691406e-01   3.3691406e-01   3.3691406e-01   3.3691406e-01   3.3691406e-01   3.3203125e-01   3.3691406e-01   3.3691406e-01   3.4667969e-01   3.5644531e-01   3.7597656e-01   4.0039062e-01   4.2480469e-01   4.5898438e-01   4.9316406e-01   5.3222656e-01   5.7617188e-01   6.1523438e-01   6.5917969e-01   7.0800781e-01   7.4707031e-01   7.8613281e-01   8.2031250e-01   8.5937500e-01   8.8867188e-01   9.1308594e-01   9.3750000e-01   9.6191406e-01   9.7656250e-01   9.9121094e-01   1.0009766e+00   1.0107422e+00   1.0156250e+00   1.0156250e+00   1.0107422e+00   1.0058594e+00   9.9609375e-01   9.8632812e-01   9.7167969e-01   9.5703125e-01   9.4238281e-01   9.2285156e-01   9.0820312e-01   8.9355469e-01   8.7402344e-01   8.5937500e-01   8.3984375e-01   8.2519531e-01   8.0566406e-01   7.9101562e-01   7.7148438e-01   7.5683594e-01   7.4218750e-01   7.2753906e-01   7.0800781e-01   6.9335938e-01   6.7871094e-01   6.5917969e-01   6.4453125e-01   6.3476562e-01   6.1523438e-01   6.0546875e-01   5.9082031e-01   5.7617188e-01   5.6152344e-01   5.5175781e-01   5.3710938e-01   5.2734375e-01   5.1269531e-01   5.0292969e-01   4.9316406e-01   4.8339844e-01   4.7363281e-01   4.6386719e-01   4.5898438e-01   4.4433594e-01   4.3945312e-01   4.3945312e-01   4.2968750e-01   4.2480469e-01   4.1992188e-01   4.1503906e-01   4.1015625e-01   4.0527344e-01   4.0039062e-01   3.9550781e-01   3.9550781e-01   3.8574219e-01   3.8085938e-01   3.7597656e-01   3.7597656e-01   3.7109375e-01   3.6621094e-01   3.6132812e-01   3.6132812e-01   3.5644531e-01   3.5644531e-01   3.5156250e-01   3.4179688e-01   3.4667969e-01   3.3691406e-01   3.3691406e-01   3.3203125e-01   3.3203125e-01   3.3203125e-01   3.2714844e-01   3.2226562e-01   3.2714844e-01   3.2226562e-01   3.2714844e-01   3.3691406e-01   3.4179688e-01   3.6132812e-01   3.8085938e-01   4.1015625e-01   4.3945312e-01   4.6875000e-01   5.0781250e-01   5.4199219e-01   5.7617188e-01   6.2011719e-01   6.5917969e-01   6.9824219e-01   7.3242188e-01   7.6660156e-01   8.0078125e-01   8.2519531e-01   8.4960938e-01   8.7402344e-01   8.8867188e-01   9.0820312e-01   9.1796875e-01   9.2285156e-01   9.2773438e-01   9.2773438e-01   9.2773438e-01   9.2773438e-01   9.1796875e-01   9.0820312e-01   8.9843750e-01   8.8867188e-01   8.7890625e-01   8.6425781e-01   8.5449219e-01   8.3984375e-01   8.2519531e-01   8.1054688e-01   8.0078125e-01   7.8613281e-01   7.7636719e-01   7.6171875e-01   7.4707031e-01   7.3242188e-01   7.2265625e-01   7.0800781e-01   6.9824219e-01   6.8359375e-01   6.6894531e-01   6.5917969e-01   6.4453125e-01   6.3476562e-01   6.2011719e-01   6.1035156e-01   6.0058594e-01   5.8593750e-01   5.7617188e-01   5.6640625e-01   5.5664062e-01   5.4687500e-01   5.3222656e-01   5.2246094e-01   5.1757812e-01   5.0292969e-01   4.9804688e-01   4.8828125e-01   4.7851562e-01   4.7363281e-01   4.6875000e-01   4.5898438e-01   4.5410156e-01   4.4921875e-01   4.4433594e-01   4.3457031e-01   4.2968750e-01   4.2480469e-01   4.1992188e-01   4.1503906e-01   4.1015625e-01   4.0527344e-01   4.0527344e-01   3.9550781e-01   3.9550781e-01   3.9062500e-01   3.8574219e-01   3.8085938e-01   3.7597656e-01   3.7597656e-01   3.7109375e-01   3.6621094e-01   3.6132812e-01   3.6132812e-01   3.5644531e-01   3.5644531e-01   3.5644531e-01   3.5156250e-01   3.5156250e-01   3.5156250e-01   3.5644531e-01   3.6132812e-01   3.7109375e-01   3.8574219e-01   4.0527344e-01   4.2968750e-01   4.5898438e-01   4.8828125e-01   5.2246094e-01   5.6152344e-01   5.9082031e-01   6.2988281e-01   6.6894531e-01   7.0800781e-01   7.3730469e-01   7.7148438e-01   8.0078125e-01   8.3007812e-01   8.5449219e-01   8.6914062e-01   8.8867188e-01   9.0332031e-01   9.1308594e-01   9.1796875e-01   9.2285156e-01   9.1796875e-01   9.1796875e-01   9.0820312e-01   9.0332031e-01   8.9355469e-01   8.8378906e-01   8.7402344e-01   8.5937500e-01   8.4472656e-01   8.3496094e-01   8.2031250e-01   8.1054688e-01   7.9589844e-01   7.8125000e-01   7.6660156e-01   7.5195312e-01   7.4218750e-01   7.3242188e-01   7.1777344e-01   7.0800781e-01   6.9824219e-01   6.8359375e-01   6.6894531e-01   6.5917969e-01   6.4941406e-01   6.3476562e-01   6.2500000e-01   6.1523438e-01   6.0546875e-01   5.9570312e-01   5.8105469e-01   5.7128906e-01   5.6152344e-01   5.4687500e-01   5.4199219e-01   5.2734375e-01   5.2246094e-01   5.1269531e-01   5.0292969e-01   4.9316406e-01   4.8828125e-01   4.7851562e-01   4.7363281e-01   4.6875000e-01   4.5898438e-01   4.5410156e-01   4.4921875e-01   4.4433594e-01   4.3945312e-01   4.2968750e-01   4.2480469e-01   4.1503906e-01   4.1015625e-01   4.1015625e-01   4.0039062e-01   3.9550781e-01   3.9062500e-01   3.8574219e-01   3.8085938e-01   3.7597656e-01   3.7597656e-01   3.7109375e-01   3.7109375e-01   3.6621094e-01   3.6621094e-01   3.6621094e-01   3.6132812e-01   3.6132812e-01   3.6132812e-01   3.6132812e-01   3.7109375e-01   3.8085938e-01   3.9550781e-01   4.1992188e-01   4.3945312e-01   4.7363281e-01   5.0292969e-01   5.4199219e-01   5.8105469e-01   6.1523438e-01   6.5429688e-01   6.9335938e-01   7.2753906e-01   7.5683594e-01   7.8613281e-01   8.1542969e-01   8.3984375e-01   8.5937500e-01   8.7890625e-01   8.9355469e-01   9.0820312e-01   9.1308594e-01   9.1796875e-01   9.1796875e-01   9.1796875e-01   9.1796875e-01   9.1308594e-01   9.0332031e-01   8.9355469e-01   8.8867188e-01   8.7402344e-01   8.6914062e-01   8.5449219e-01   8.4472656e-01   8.3496094e-01   8.2031250e-01   8.1054688e-01   7.9589844e-01   7.8613281e-01   7.7636719e-01   7.6171875e-01   7.5195312e-01   7.4218750e-01   7.2753906e-01   7.1777344e-01   7.0800781e-01   6.9824219e-01   6.8847656e-01   6.7382812e-01   6.6406250e-01   6.5429688e-01   6.4453125e-01   6.2988281e-01   6.2011719e-01   6.1523438e-01   6.0058594e-01   5.9082031e-01   5.8105469e-01   5.7128906e-01   5.6152344e-01   5.5175781e-01   5.4199219e-01   5.3222656e-01   5.2246094e-01   5.1269531e-01   5.0781250e-01   4.9804688e-01   4.8828125e-01   4.8339844e-01   4.7851562e-01   4.7363281e-01   4.6875000e-01   4.6386719e-01   4.5898438e-01   4.4921875e-01   4.4433594e-01   4.3945312e-01   4.3457031e-01   4.2968750e-01   4.2968750e-01   4.2480469e-01   4.1992188e-01   4.1503906e-01   4.1015625e-01   4.0527344e-01   4.0527344e-01   3.9550781e-01   3.9550781e-01   3.9550781e-01   3.9062500e-01   3.8574219e-01   3.8085938e-01   3.8085938e-01   3.8085938e-01   3.7597656e-01   3.7109375e-01   3.7109375e-01   3.6621094e-01   3.6621094e-01   3.6621094e-01   3.7109375e-01   3.7597656e-01   3.8574219e-01   4.0527344e-01   4.2480469e-01   4.5410156e-01   4.8339844e-01   5.2246094e-01   5.5664062e-01   6.0546875e-01   6.4941406e-01   6.9824219e-01   7.3730469e-01   7.8125000e-01   8.2519531e-01   8.5937500e-01   8.9355469e-01   9.2285156e-01   9.5703125e-01   9.7656250e-01   1.0009766e+00   1.0205078e+00   1.0351562e+00   1.0449219e+00   1.0546875e+00   1.0595703e+00   1.0595703e+00   1.0595703e+00   1.0498047e+00   1.0449219e+00   1.0351562e+00   1.0205078e+00   1.0058594e+00   9.9609375e-01   9.8144531e-01   9.6679688e-01   9.5214844e-01   9.3750000e-01   9.2285156e-01   9.0820312e-01   8.9355469e-01   8.7890625e-01   8.5937500e-01   8.4960938e-01   8.3007812e-01   8.1542969e-01   8.0078125e-01   7.8613281e-01   7.7148438e-01   7.5683594e-01   7.4218750e-01   7.2753906e-01   7.1289062e-01   7.0312500e-01   6.8847656e-01   6.7382812e-01   6.6406250e-01   6.4941406e-01   6.3964844e-01   6.2500000e-01   6.1035156e-01   6.0058594e-01   5.9082031e-01   5.7617188e-01   5.6640625e-01   5.5175781e-01   5.4687500e-01   5.3710938e-01   5.2246094e-01   5.1757812e-01   5.0292969e-01   4.9316406e-01   4.8828125e-01   4.7851562e-01   4.6875000e-01   4.6386719e-01   4.5898438e-01   4.4921875e-01   4.3945312e-01   4.2968750e-01   4.2968750e-01   4.1992188e-01   4.1503906e-01   4.1015625e-01   4.0527344e-01   4.0039062e-01   3.9550781e-01   3.8574219e-01   3.8085938e-01   3.8085938e-01   3.7597656e-01   3.7109375e-01   3.7109375e-01   3.6621094e-01   3.6132812e-01   3.5644531e-01   3.5156250e-01   3.5156250e-01   3.4667969e-01   3.4667969e-01   3.4667969e-01   3.4179688e-01   3.4667969e-01   3.5156250e-01   3.5644531e-01   3.7109375e-01   3.9062500e-01   4.1503906e-01   4.3945312e-01   4.7363281e-01   5.1269531e-01   5.4687500e-01   5.8593750e-01   6.2988281e-01   6.6894531e-01   7.0800781e-01   7.4707031e-01   7.8125000e-01   8.1054688e-01   8.3984375e-01   8.6914062e-01   8.8867188e-01   9.0820312e-01   9.2773438e-01   9.4238281e-01   9.5214844e-01   9.5703125e-01   9.6191406e-01   9.6191406e-01   9.5703125e-01   9.5214844e-01   9.4238281e-01   9.3261719e-01   9.2285156e-01   9.0820312e-01   8.9355469e-01   8.7890625e-01   8.6425781e-01   8.4960938e-01   8.3984375e-01   8.2519531e-01   8.1054688e-01   7.9589844e-01   7.8613281e-01   7.7148438e-01   7.5683594e-01   7.4707031e-01   7.3242188e-01   7.2265625e-01   7.1289062e-01   6.9824219e-01   6.8847656e-01   6.7382812e-01   6.6406250e-01   6.5429688e-01   6.3964844e-01   6.2988281e-01   6.2011719e-01   6.1035156e-01   6.0058594e-01   5.9570312e-01   5.8105469e-01   5.7617188e-01   5.6640625e-01   5.5664062e-01   5.4687500e-01   5.4199219e-01   5.3710938e-01   5.2734375e-01   5.1757812e-01   5.1269531e-01   5.0781250e-01   5.0292969e-01   4.9316406e-01   4.8828125e-01   4.8339844e-01   4.7851562e-01   4.7363281e-01   4.6875000e-01   4.6386719e-01   4.6386719e-01   4.5898438e-01   4.5410156e-01   4.4921875e-01   4.4433594e-01   4.4433594e-01   4.3457031e-01   4.3457031e-01   4.2968750e-01   4.2480469e-01   4.2480469e-01   4.1992188e-01   4.1992188e-01   4.1503906e-01   4.1503906e-01   4.1503906e-01   4.1992188e-01   4.2968750e-01   4.4433594e-01   4.5898438e-01   4.8828125e-01   5.1757812e-01   5.4199219e-01   5.7617188e-01   6.1523438e-01   6.5429688e-01   6.8847656e-01   7.2753906e-01   7.6171875e-01   7.9589844e-01   8.2519531e-01   8.5449219e-01   8.8378906e-01   9.0332031e-01   9.2773438e-01   9.4238281e-01   9.6191406e-01   9.7167969e-01   9.8144531e-01   9.8144531e-01   9.8144531e-01   9.8144531e-01   9.7656250e-01   9.7167969e-01   9.6191406e-01   9.5214844e-01   9.4238281e-01   9.3261719e-01   9.1796875e-01   9.0332031e-01   8.8867188e-01   8.7890625e-01   8.5937500e-01   8.4472656e-01   8.3007812e-01   8.2031250e-01   8.0566406e-01   7.9101562e-01   7.7636719e-01   7.6171875e-01   7.4707031e-01   7.3730469e-01   7.2265625e-01   7.0800781e-01   6.9824219e-01   6.8359375e-01   6.7382812e-01   6.5917969e-01   6.4941406e-01   6.3476562e-01   6.2500000e-01   6.1035156e-01   5.9570312e-01   5.8593750e-01   5.7617188e-01   5.6640625e-01   5.5664062e-01   5.4687500e-01   5.3710938e-01   5.2734375e-01   5.1757812e-01   5.1269531e-01   5.0292969e-01   4.9316406e-01   4.8828125e-01   4.7851562e-01   4.7363281e-01   4.6386719e-01   4.5898438e-01   4.5410156e-01   4.4433594e-01   4.3945312e-01   4.3457031e-01   4.2968750e-01   4.2968750e-01   4.2480469e-01   4.1503906e-01   4.1503906e-01   4.1015625e-01   4.0527344e-01   4.0039062e-01   3.9550781e-01   3.9550781e-01   3.9062500e-01   3.8574219e-01   3.8085938e-01   3.7597656e-01   3.7597656e-01   3.7109375e-01   3.7109375e-01   3.6621094e-01   3.6132812e-01   3.6132812e-01   3.6132812e-01   3.5644531e-01   3.5644531e-01   3.5156250e-01   3.5156250e-01   3.5644531e-01   3.6621094e-01   3.7597656e-01   3.9550781e-01   4.1992188e-01   4.4921875e-01   4.7851562e-01   5.2246094e-01   5.5664062e-01   6.0058594e-01   6.3964844e-01   6.8847656e-01   7.3242188e-01   7.7148438e-01   8.0566406e-01   8.4472656e-01   8.7890625e-01   9.0820312e-01   9.3750000e-01   9.6191406e-01   9.8144531e-01   1.0009766e+00   1.0156250e+00   1.0253906e+00   1.0302734e+00   1.0351562e+00   1.0351562e+00   1.0351562e+00   1.0302734e+00   1.0205078e+00   1.0107422e+00   1.0009766e+00   9.8632812e-01   9.7656250e-01   9.6191406e-01   9.4238281e-01   9.3261719e-01   9.1308594e-01   8.9843750e-01   8.8378906e-01   8.6914062e-01   8.5449219e-01   8.3984375e-01   8.2519531e-01   8.1054688e-01   7.9101562e-01   7.7636719e-01   7.6171875e-01   7.5195312e-01   7.3730469e-01   7.2265625e-01   7.0800781e-01   6.9335938e-01   6.7871094e-01   6.6894531e-01   6.5429688e-01   6.3964844e-01   6.2988281e-01   6.1523438e-01   6.0546875e-01   5.9082031e-01   5.8105469e-01   5.6640625e-01   5.5664062e-01   5.4687500e-01   5.3710938e-01   5.2246094e-01   5.1757812e-01   5.0781250e-01   4.9804688e-01   4.8828125e-01   4.7851562e-01   4.7363281e-01   4.6386719e-01   4.5898438e-01   4.4921875e-01   4.4433594e-01   4.3945312e-01   4.3457031e-01   4.2480469e-01   4.1992188e-01   4.1503906e-01   4.1015625e-01   4.0527344e-01   4.0527344e-01   3.9550781e-01   3.9550781e-01   3.9062500e-01   3.8574219e-01   3.8574219e-01   3.8085938e-01   3.8085938e-01   3.8085938e-01   3.7597656e-01   3.7597656e-01   3.7597656e-01   3.7109375e-01   3.7109375e-01   3.6621094e-01   3.6621094e-01   3.6621094e-01   3.7597656e-01   3.9062500e-01   4.0039062e-01   4.2480469e-01   4.5410156e-01   4.8339844e-01   5.1757812e-01   5.5175781e-01   5.9082031e-01   6.3476562e-01   6.7382812e-01   7.1289062e-01   7.5195312e-01   7.8613281e-01   8.2519531e-01   8.5449219e-01   8.8378906e-01   9.0820312e-01   9.3261719e-01   9.4726562e-01   9.6679688e-01   9.7656250e-01   9.9121094e-01   9.9121094e-01   9.9609375e-01   9.9609375e-01   9.9121094e-01   9.8632812e-01   9.7656250e-01   9.6679688e-01   9.5703125e-01   9.4238281e-01   9.2773438e-01   9.1796875e-01   9.0332031e-01   8.8867188e-01   8.7402344e-01   8.5937500e-01   8.4472656e-01   8.3007812e-01   8.1542969e-01   8.0078125e-01   7.8613281e-01   7.7148438e-01   7.5683594e-01   7.4707031e-01   7.3242188e-01   7.1777344e-01   7.0800781e-01   6.9335938e-01   6.7871094e-01   6.6894531e-01   6.5429688e-01   6.3964844e-01   6.2988281e-01   6.1523438e-01   6.0058594e-01   5.9082031e-01   5.7617188e-01   5.6640625e-01   5.5175781e-01   5.4199219e-01   5.3222656e-01   5.2246094e-01   5.0781250e-01   5.0292969e-01   4.8828125e-01   4.8339844e-01   4.7363281e-01   4.6386719e-01   4.5898438e-01   4.4921875e-01   4.3945312e-01   4.3457031e-01   4.2480469e-01   4.1992188e-01   4.1015625e-01   4.0527344e-01   4.0527344e-01   3.9550781e-01   3.9550781e-01   3.9062500e-01   3.8574219e-01   3.8085938e-01   3.7597656e-01   3.7109375e-01   3.7109375e-01   3.6621094e-01   3.6621094e-01   3.6621094e-01   3.5644531e-01   3.5644531e-01   3.5644531e-01   3.5156250e-01   3.5644531e-01   3.5156250e-01   3.5644531e-01   3.6132812e-01   3.6621094e-01   3.8574219e-01   4.0039062e-01   4.2480469e-01   4.5410156e-01   4.8339844e-01   5.1757812e-01   5.5175781e-01   5.9082031e-01   6.2988281e-01   6.6894531e-01   7.0312500e-01   7.3730469e-01   7.7636719e-01   8.0566406e-01   8.3007812e-01   8.5449219e-01   8.7890625e-01   8.9843750e-01   9.0820312e-01   9.2285156e-01   9.3261719e-01   9.3750000e-01   9.4238281e-01   9.4238281e-01   9.3750000e-01   9.3261719e-01   9.2285156e-01   9.1796875e-01   9.0332031e-01   8.9355469e-01   8.8378906e-01   8.6914062e-01   8.5937500e-01   8.4960938e-01   8.3496094e-01   8.2031250e-01   8.0566406e-01   7.9101562e-01   7.8125000e-01   7.6660156e-01   7.5683594e-01   7.4218750e-01   7.2753906e-01   7.1289062e-01   6.9824219e-01   6.8359375e-01   6.7382812e-01   6.5917969e-01   6.4941406e-01   6.3476562e-01   6.2011719e-01   6.1035156e-01   6.0058594e-01   5.8593750e-01   5.7617188e-01   5.6640625e-01   5.5664062e-01   5.4687500e-01   5.3222656e-01   5.2734375e-01   5.1757812e-01   5.0781250e-01   4.9804688e-01   4.8828125e-01   4.8339844e-01   4.7363281e-01   4.6875000e-01   4.5898438e-01   4.4921875e-01   4.4433594e-01   4.3945312e-01   4.3457031e-01   4.2480469e-01   4.2480469e-01   4.1992188e-01   4.1503906e-01   4.0527344e-01   4.0039062e-01   4.0039062e-01   3.9550781e-01   3.9062500e-01   3.9062500e-01   3.8574219e-01   3.8574219e-01   3.8574219e-01   3.8085938e-01   3.7597656e-01   3.7597656e-01   3.7597656e-01   3.7109375e-01   3.7109375e-01   3.7109375e-01   3.7597656e-01   3.8574219e-01   3.9550781e-01   4.1503906e-01   4.3945312e-01   4.6875000e-01   5.0292969e-01   5.3710938e-01   5.7617188e-01   6.2011719e-01   6.6406250e-01   7.0312500e-01   7.4707031e-01   7.8613281e-01   8.2519531e-01   8.5449219e-01   8.8867188e-01   9.1796875e-01   9.4726562e-01   9.6679688e-01   9.8632812e-01   1.0058594e+00   1.0205078e+00   1.0302734e+00   1.0351562e+00   1.0400391e+00   1.0449219e+00   1.0400391e+00   1.0302734e+00   1.0253906e+00   1.0156250e+00   1.0009766e+00   9.9121094e-01   9.7656250e-01   9.6191406e-01   9.4238281e-01   9.2773438e-01   9.1308594e-01   8.9355469e-01   8.8378906e-01   8.6425781e-01   8.4960938e-01   8.3496094e-01   8.2031250e-01   8.0566406e-01   7.9589844e-01   7.7636719e-01   7.6171875e-01   7.4707031e-01   7.3242188e-01   7.2265625e-01   7.0312500e-01   6.8847656e-01   6.7871094e-01   6.6406250e-01   6.4941406e-01   6.3476562e-01   6.2011719e-01   6.1035156e-01   5.9570312e-01   5.8105469e-01   5.7128906e-01   5.5664062e-01   5.4687500e-01   5.3222656e-01   5.1757812e-01   5.1269531e-01   4.9804688e-01   4.9316406e-01   4.8339844e-01   4.7363281e-01   4.6386719e-01   4.5410156e-01   4.4433594e-01   4.3945312e-01   4.2968750e-01   4.1992188e-01   4.1992188e-01   4.1015625e-01   4.0527344e-01   4.0039062e-01   3.9550781e-01   3.9062500e-01   3.8574219e-01   3.8574219e-01   3.8085938e-01   3.8085938e-01   3.7597656e-01   3.7109375e-01   3.6621094e-01   3.6621094e-01   3.6132812e-01   3.6132812e-01   3.6132812e-01   3.5644531e-01   3.5644531e-01   3.5156250e-01   3.5644531e-01   3.6132812e-01   3.6621094e-01   3.8574219e-01   4.0039062e-01   4.2968750e-01   4.5898438e-01   4.9316406e-01   5.2734375e-01   5.6640625e-01   6.0546875e-01   6.4941406e-01   6.8359375e-01   7.2753906e-01   7.6171875e-01   8.0078125e-01   8.3007812e-01   8.5937500e-01   8.8378906e-01   9.0820312e-01   9.2285156e-01   9.4238281e-01   9.5703125e-01   9.7167969e-01   9.7656250e-01   9.8144531e-01   9.8144531e-01   9.8144531e-01   9.7656250e-01   9.7167969e-01   9.6679688e-01   9.5214844e-01   9.4238281e-01   9.3261719e-01   9.1796875e-01   9.0820312e-01   8.9355469e-01   8.7890625e-01   8.6425781e-01   8.5449219e-01   8.3496094e-01   8.2519531e-01   8.1054688e-01   7.9101562e-01   7.7636719e-01   7.6660156e-01   7.5195312e-01   7.3730469e-01   7.2265625e-01   7.0800781e-01   6.9335938e-01   6.7871094e-01   6.5917969e-01   6.4453125e-01   6.2988281e-01   6.1523438e-01   5.9570312e-01   5.8593750e-01   5.6640625e-01   5.5664062e-01   5.4199219e-01   5.2734375e-01   5.1269531e-01   5.0292969e-01   4.9316406e-01   4.7851562e-01   4.6386719e-01   4.5410156e-01   4.3945312e-01   4.2968750e-01   4.1992188e-01   4.1015625e-01   4.0039062e-01   3.9550781e-01   3.8574219e-01   3.8085938e-01   3.7109375e-01   3.6132812e-01   3.5644531e-01   3.4667969e-01   3.4179688e-01   3.4179688e-01   3.3203125e-01   3.2714844e-01   3.2714844e-01   3.2226562e-01   3.1738281e-01   3.1738281e-01   3.0761719e-01   3.0761719e-01   3.0761719e-01   3.0273438e-01   2.9785156e-01   2.9785156e-01   2.9785156e-01   2.9785156e-01   3.0273438e-01   3.0761719e-01   3.2714844e-01   3.4179688e-01   3.6621094e-01   3.8574219e-01   4.1992188e-01   4.5410156e-01   4.9316406e-01   5.3222656e-01   5.7128906e-01   6.1035156e-01   6.5429688e-01   6.9335938e-01   7.2265625e-01   7.5683594e-01   7.8613281e-01   8.1542969e-01   8.3496094e-01   8.5937500e-01   8.7402344e-01   8.8867188e-01   8.9843750e-01   8.9843750e-01   9.0332031e-01   9.0332031e-01   8.9843750e-01   8.9355469e-01   8.8378906e-01   8.7890625e-01   8.6425781e-01   8.5449219e-01   8.4472656e-01   8.3007812e-01   8.1542969e-01   8.0566406e-01   7.9589844e-01   7.8125000e-01   7.7148438e-01   7.5683594e-01   7.4707031e-01   7.3242188e-01   7.1777344e-01   7.0800781e-01   6.9335938e-01   6.8359375e-01   6.6894531e-01   6.5917969e-01   6.4941406e-01   6.3476562e-01   6.2500000e-01   6.1035156e-01   6.0058594e-01   5.9082031e-01   5.8105469e-01   5.7128906e-01   5.5664062e-01   5.5175781e-01   5.4199219e-01   5.3710938e-01   5.2734375e-01   5.1757812e-01   5.0781250e-01   5.0292969e-01   4.9804688e-01   4.8828125e-01   4.8339844e-01   4.7363281e-01   4.6875000e-01   4.6386719e-01   4.5898438e-01   4.5410156e-01   4.4921875e-01   4.4433594e-01   4.3457031e-01   4.2968750e-01   4.2480469e-01   4.1992188e-01   4.1992188e-01   4.1503906e-01   4.1015625e-01   4.0527344e-01   4.0039062e-01   4.0039062e-01   3.9550781e-01   3.8574219e-01   3.8574219e-01   3.8085938e-01   3.8085938e-01   3.8085938e-01   3.8085938e-01   3.8085938e-01   3.8574219e-01   4.0039062e-01   4.1503906e-01   4.3945312e-01   4.6875000e-01   5.0292969e-01   5.3710938e-01   5.7128906e-01   6.1035156e-01   6.5429688e-01   6.9824219e-01   7.3242188e-01   7.6660156e-01   8.0566406e-01   8.3496094e-01   8.6914062e-01   8.9355469e-01   9.1796875e-01   9.4238281e-01   9.6191406e-01   9.7656250e-01   9.8632812e-01   9.9609375e-01   1.0058594e+00   1.0058594e+00   1.0058594e+00   1.0009766e+00   9.9121094e-01   9.8632812e-01   9.7167969e-01   9.6191406e-01   9.4726562e-01   9.3750000e-01   9.2285156e-01   9.0820312e-01   8.9355469e-01   8.7890625e-01   8.6425781e-01   8.4960938e-01   8.3496094e-01   8.2031250e-01   8.0566406e-01   7.9101562e-01   7.7636719e-01   7.6171875e-01   7.4707031e-01   7.3242188e-01   7.1777344e-01   7.0800781e-01   6.9335938e-01   6.7871094e-01   6.6894531e-01   6.5429688e-01   6.3964844e-01   6.2500000e-01   6.1523438e-01   6.0058594e-01   5.8593750e-01   5.7128906e-01   5.5664062e-01   5.4687500e-01   5.3222656e-01   5.2246094e-01   5.1269531e-01   5.0292969e-01   4.8828125e-01   4.8339844e-01   4.6875000e-01   4.5898438e-01   4.4921875e-01   4.3945312e-01   4.3457031e-01   4.2480469e-01   4.1503906e-01   4.1503906e-01   4.0527344e-01   4.0039062e-01   3.9550781e-01   3.9062500e-01   3.8574219e-01   3.8085938e-01   3.8085938e-01   3.7597656e-01   3.7109375e-01   3.7109375e-01   3.6621094e-01   3.6132812e-01   3.6132812e-01   3.5644531e-01   3.5644531e-01   3.5156250e-01   3.5156250e-01   3.5156250e-01   3.4667969e-01   3.5156250e-01   3.6621094e-01   3.7597656e-01   3.9550781e-01   4.1992188e-01   4.4921875e-01   4.7851562e-01   5.1757812e-01   5.5664062e-01   5.9570312e-01   6.3964844e-01   6.7871094e-01   7.1777344e-01   7.5683594e-01   7.9101562e-01   8.1542969e-01   8.4472656e-01   8.7402344e-01   8.9355469e-01   9.1308594e-01   9.3261719e-01   9.4726562e-01   9.5703125e-01   9.6191406e-01   9.6679688e-01   9.6679688e-01   9.6679688e-01   9.6191406e-01   9.5214844e-01   9.4238281e-01   9.3261719e-01   9.1796875e-01   9.0332031e-01   8.9355469e-01   8.7890625e-01   8.6425781e-01   8.4960938e-01   8.3496094e-01   8.2031250e-01   8.0566406e-01   7.9101562e-01   7.7636719e-01   7.6660156e-01   7.5195312e-01   7.3730469e-01   7.2265625e-01   7.0800781e-01   6.9824219e-01   6.7871094e-01   6.6894531e-01   6.5429688e-01   6.3964844e-01   6.2988281e-01   6.1523438e-01   6.0058594e-01   5.9082031e-01   5.7128906e-01   5.6152344e-01   5.5175781e-01   5.3710938e-01   5.2734375e-01   5.0781250e-01   4.9804688e-01   4.8828125e-01   4.7363281e-01   4.6875000e-01   4.5898438e-01   4.4921875e-01   4.3945312e-01   4.2968750e-01   4.1992188e-01   4.1503906e-01   4.0527344e-01   4.0039062e-01   3.9550781e-01   3.9062500e-01   3.8574219e-01   3.7597656e-01   3.7109375e-01   3.6621094e-01   3.6132812e-01   3.6132812e-01   3.5644531e-01   3.5156250e-01   3.4667969e-01   3.4667969e-01   3.4179688e-01   3.3691406e-01   3.3691406e-01   3.3691406e-01   3.3203125e-01   3.3203125e-01   3.2714844e-01   3.2714844e-01   3.2714844e-01   3.2714844e-01   3.2714844e-01   3.3691406e-01   3.4667969e-01   3.6621094e-01   3.9062500e-01   4.1503906e-01   4.4433594e-01   4.8339844e-01   5.1269531e-01   5.5175781e-01   5.9082031e-01   6.2988281e-01   6.6406250e-01   7.0312500e-01   7.3730469e-01   7.7148438e-01   7.9589844e-01   8.2519531e-01   8.4960938e-01   8.6914062e-01   8.8378906e-01   8.9355469e-01   9.0332031e-01   9.0820312e-01   9.1308594e-01   9.1308594e-01   9.0820312e-01   9.0332031e-01   8.9355469e-01   8.8378906e-01   8.7402344e-01   8.5937500e-01   8.4960938e-01   8.3496094e-01   8.2031250e-01   8.0566406e-01   7.9101562e-01   7.7148438e-01   7.6171875e-01   7.4707031e-01   7.2753906e-01   7.1777344e-01   7.0312500e-01   6.8847656e-01   6.7382812e-01   6.5429688e-01   6.4453125e-01   6.2988281e-01   6.1523438e-01   6.0546875e-01   5.9082031e-01   5.8105469e-01   5.7128906e-01   5.5664062e-01   5.4687500e-01   5.3710938e-01   5.2734375e-01   5.1757812e-01   5.0781250e-01   4.9804688e-01   4.8828125e-01   4.8339844e-01   4.7363281e-01   4.6875000e-01   4.6386719e-01   4.5410156e-01   4.4921875e-01   4.4433594e-01   4.3945312e-01   4.3457031e-01   4.2968750e-01   4.2480469e-01   4.1992188e-01   4.1503906e-01   4.1503906e-01   4.1503906e-01   4.1503906e-01   4.1015625e-01   4.1015625e-01   4.0527344e-01   4.0527344e-01   4.0527344e-01   4.0039062e-01   4.0039062e-01   3.9550781e-01   3.9550781e-01   3.9550781e-01   3.9550781e-01   3.9062500e-01   3.9550781e-01   3.9062500e-01   3.9062500e-01   3.9062500e-01   3.9550781e-01   4.0039062e-01   4.1015625e-01   4.2480469e-01   4.4921875e-01   4.6875000e-01   5.0292969e-01   5.3222656e-01   5.6640625e-01   6.0546875e-01   6.4453125e-01   6.8359375e-01   7.2265625e-01   7.5195312e-01   7.8613281e-01   8.1542969e-01   8.4472656e-01   8.6914062e-01   8.8867188e-01   9.0820312e-01   9.2285156e-01   9.3261719e-01   9.4238281e-01   9.4726562e-01   9.5214844e-01   9.4726562e-01   9.4726562e-01   9.4238281e-01   9.3261719e-01   9.2285156e-01   9.1308594e-01   8.9843750e-01   8.9355469e-01   8.7890625e-01   8.6425781e-01   8.5449219e-01   8.4472656e-01   8.3007812e-01   8.1542969e-01   8.0566406e-01   7.9101562e-01   7.8125000e-01   7.6660156e-01   7.5195312e-01   7.4218750e-01   7.2753906e-01   7.1777344e-01   7.0800781e-01   6.9335938e-01   6.8847656e-01   6.7382812e-01   6.5917969e-01   6.4941406e-01   6.3964844e-01   6.2988281e-01   6.2011719e-01   6.1035156e-01   5.9570312e-01   5.8593750e-01   5.7617188e-01   5.6640625e-01   5.5664062e-01   5.4687500e-01   5.3222656e-01   5.2246094e-01   5.1757812e-01   5.0292969e-01   4.9316406e-01   4.8828125e-01   4.7851562e-01   4.6875000e-01   4.6386719e-01   4.4921875e-01   4.4433594e-01   4.3945312e-01   4.2968750e-01   4.2480469e-01   4.1992188e-01   4.1015625e-01   4.0527344e-01   4.0039062e-01   3.9550781e-01   3.8574219e-01   3.8574219e-01   3.8085938e-01   3.7597656e-01   3.7109375e-01   3.7109375e-01   3.6621094e-01   3.6132812e-01   3.5644531e-01   3.5644531e-01   3.5156250e-01   3.5156250e-01   3.5644531e-01   3.5644531e-01   3.7109375e-01   3.8574219e-01   4.0527344e-01   4.2968750e-01   4.6386719e-01   4.9804688e-01   5.3222656e-01   5.7128906e-01   6.1035156e-01   6.5429688e-01   6.9335938e-01   7.3242188e-01   7.7148438e-01   8.0566406e-01   8.3984375e-01   8.7402344e-01   8.9843750e-01   9.2285156e-01   9.4238281e-01   9.6191406e-01   9.8144531e-01   9.9121094e-01   9.9609375e-01   1.0009766e+00   1.0058594e+00   1.0058594e+00   1.0009766e+00   9.9121094e-01   9.8632812e-01   9.7656250e-01   9.6191406e-01   9.5214844e-01   9.3750000e-01   9.2285156e-01   9.0820312e-01   8.9355469e-01   8.7890625e-01   8.6425781e-01   8.4960938e-01   8.3496094e-01   8.2031250e-01   8.0566406e-01   7.8613281e-01   7.6660156e-01   7.5683594e-01   7.3730469e-01   7.2265625e-01   7.0312500e-01   6.8847656e-01   6.6894531e-01   6.5429688e-01   6.3476562e-01   6.2011719e-01   5.9570312e-01   5.8105469e-01   5.6152344e-01   5.4199219e-01   5.2734375e-01   5.1269531e-01   4.9316406e-01   4.7851562e-01   4.5898438e-01   4.4433594e-01   4.2480469e-01   4.1503906e-01   4.0039062e-01   3.8574219e-01   3.7109375e-01   3.5644531e-01   3.4667969e-01   3.3691406e-01   3.2714844e-01   3.1738281e-01   3.0761719e-01   3.0273438e-01   2.9785156e-01   2.9296875e-01   2.9296875e-01   2.9296875e-01   2.9296875e-01   2.9296875e-01   2.9785156e-01   2.9296875e-01   2.9296875e-01   2.9296875e-01   2.9296875e-01   2.9296875e-01   2.9296875e-01   2.9296875e-01   2.9296875e-01   2.9296875e-01   2.9296875e-01   2.9296875e-01   2.9785156e-01   3.0273438e-01   3.0761719e-01   3.1738281e-01   3.3203125e-01   3.5644531e-01   3.8085938e-01   4.1015625e-01   4.4433594e-01   4.8828125e-01   5.2734375e-01   5.6640625e-01   6.1035156e-01   6.5429688e-01   6.9824219e-01   7.3730469e-01   7.7636719e-01   8.1542969e-01   8.4960938e-01   8.7890625e-01   9.0820312e-01   9.2773438e-01   9.5214844e-01   9.6679688e-01   9.8144531e-01   9.9121094e-01   1.0009766e+00   1.0009766e+00   1.0058594e+00   1.0009766e+00   9.9609375e-01   9.8632812e-01   9.7656250e-01   9.6679688e-01   9.5214844e-01   9.4238281e-01   9.2773438e-01   9.1796875e-01   9.0332031e-01   8.8867188e-01   8.7402344e-01   8.5937500e-01   8.4472656e-01   8.3007812e-01   8.2031250e-01   8.0078125e-01   7.8613281e-01   7.7148438e-01   7.6171875e-01   7.4707031e-01   7.3730469e-01   7.2265625e-01   7.0800781e-01   6.9335938e-01   6.7871094e-01   6.6894531e-01   6.5429688e-01   6.3964844e-01   6.2988281e-01   6.1523438e-01   6.0058594e-01   5.8593750e-01   5.7617188e-01   5.6152344e-01   5.4687500e-01   5.3710938e-01   5.2246094e-01   5.1269531e-01   5.0292969e-01   4.8828125e-01   4.7851562e-01   4.7363281e-01   4.5898438e-01   4.5410156e-01   4.4433594e-01   4.3457031e-01   4.2968750e-01   4.1992188e-01   4.1503906e-01   4.1015625e-01   4.0039062e-01   3.9550781e-01   3.9550781e-01   3.8574219e-01   3.8574219e-01   3.8085938e-01   3.8085938e-01   3.7109375e-01   3.7109375e-01   3.6621094e-01   3.6132812e-01   3.6132812e-01   3.6132812e-01   3.5644531e-01   3.5156250e-01   3.5644531e-01   3.5644531e-01   3.6621094e-01   3.7597656e-01   3.9550781e-01   4.1992188e-01   4.4921875e-01   4.8339844e-01   5.2246094e-01   5.5664062e-01   6.0058594e-01   6.4453125e-01   6.8847656e-01   7.3242188e-01   7.7148438e-01   8.0566406e-01   8.3984375e-01   8.6914062e-01   8.9843750e-01   9.2285156e-01   9.4726562e-01   9.6191406e-01   9.7656250e-01   9.9121094e-01   1.0009766e+00   1.0058594e+00   1.0058594e+00   1.0009766e+00   1.0009766e+00   9.8632812e-01   9.8144531e-01   9.6679688e-01   9.5214844e-01   9.3750000e-01   9.2285156e-01   9.0820312e-01   8.8867188e-01   8.7402344e-01   8.5449219e-01   8.3984375e-01   8.2519531e-01   8.0566406e-01   7.9101562e-01   7.7148438e-01   7.5683594e-01   7.3730469e-01   7.2265625e-01   7.0312500e-01   6.8847656e-01   6.6894531e-01   6.5429688e-01   6.3964844e-01   6.2500000e-01   6.0546875e-01   5.9082031e-01   5.7617188e-01   5.6640625e-01   5.5175781e-01   5.3710938e-01   5.2734375e-01   5.1269531e-01   5.0292969e-01   4.8828125e-01   4.7851562e-01   4.6875000e-01   4.5410156e-01   4.4921875e-01   4.3457031e-01   4.1992188e-01   4.1503906e-01   4.0039062e-01   3.9550781e-01   3.8574219e-01   3.7597656e-01   3.7109375e-01   3.5644531e-01   3.5644531e-01   3.4667969e-01   3.3691406e-01   3.3203125e-01   3.2714844e-01   3.2226562e-01   3.1738281e-01   3.1738281e-01   3.0761719e-01   3.0761719e-01   3.0761719e-01   3.0273438e-01   2.9785156e-01   2.9785156e-01   2.9785156e-01   2.9785156e-01   2.9785156e-01   2.9296875e-01   2.9296875e-01   2.9296875e-01   2.9785156e-01   2.9296875e-01   2.9785156e-01   3.0273438e-01   3.1250000e-01   3.2714844e-01   3.4667969e-01   3.7109375e-01   4.0039062e-01   4.3945312e-01   4.7851562e-01   5.1757812e-01   5.6152344e-01   6.0546875e-01   6.5429688e-01   6.9335938e-01   7.3730469e-01   7.7636719e-01   8.1054688e-01   8.4472656e-01   8.7402344e-01   8.9843750e-01   9.1796875e-01   9.3750000e-01   9.5214844e-01   9.6191406e-01   9.7167969e-01   9.7656250e-01   9.7167969e-01   9.7167969e-01   9.6679688e-01   9.5703125e-01   9.4726562e-01   9.3261719e-01   9.1796875e-01   9.0332031e-01   8.8867188e-01   8.7402344e-01   8.5937500e-01   8.4472656e-01   8.2519531e-01   8.1054688e-01   7.9589844e-01   7.7636719e-01   7.6171875e-01   7.4707031e-01   7.2753906e-01   7.1289062e-01   6.9335938e-01   6.7871094e-01   6.6406250e-01   6.4941406e-01   6.3476562e-01   6.2011719e-01   6.0546875e-01   5.9082031e-01   5.7617188e-01   5.6152344e-01   5.4687500e-01   5.3222656e-01   5.2246094e-01   5.1269531e-01   4.9804688e-01   4.8828125e-01   4.7363281e-01   4.6875000e-01   4.5410156e-01   4.4433594e-01   4.3457031e-01   4.2480469e-01   4.1992188e-01   4.1015625e-01   4.0039062e-01   3.9550781e-01   3.8574219e-01   3.8085938e-01   3.7109375e-01   3.6621094e-01   3.6132812e-01   3.5156250e-01   3.4667969e-01   3.4179688e-01   3.3691406e-01   3.3691406e-01   3.3203125e-01   3.2714844e-01   3.2226562e-01   3.2226562e-01   3.1738281e-01   3.1250000e-01   3.1250000e-01   3.1250000e-01   3.0273438e-01   3.0273438e-01   3.0273438e-01   2.9785156e-01   2.9785156e-01   2.9785156e-01   2.9785156e-01   2.9785156e-01   3.0273438e-01   3.1738281e-01   3.3691406e-01   3.5644531e-01   3.8574219e-01   4.1503906e-01   4.5410156e-01   4.9316406e-01   5.3710938e-01   5.7617188e-01   6.1523438e-01   6.5917969e-01   6.9824219e-01   7.3242188e-01   7.7148438e-01   8.0078125e-01   8.3007812e-01   8.5449219e-01   8.7890625e-01   8.9843750e-01   9.1308594e-01   9.2773438e-01   9.3261719e-01   9.3750000e-01   9.3750000e-01   9.3261719e-01   9.2773438e-01   9.1796875e-01   9.0820312e-01   8.9843750e-01   8.8378906e-01   8.7402344e-01   8.5937500e-01   8.4472656e-01   8.3007812e-01   8.1542969e-01   8.0078125e-01   7.8613281e-01   7.7636719e-01   7.6171875e-01   7.4707031e-01   7.3242188e-01   7.2265625e-01   7.0800781e-01   6.9824219e-01   6.8359375e-01   6.6894531e-01   6.6406250e-01   6.4941406e-01   6.3964844e-01   6.2988281e-01   6.1523438e-01   6.1035156e-01   5.9570312e-01   5.8593750e-01   5.7617188e-01   5.6640625e-01   5.5664062e-01   5.4687500e-01   5.3710938e-01   5.3222656e-01   5.1757812e-01   5.1269531e-01   5.0292969e-01   4.9804688e-01   4.8828125e-01   4.8339844e-01   4.8339844e-01   4.7363281e-01   4.6875000e-01   4.6386719e-01   4.5898438e-01   4.5410156e-01   4.4921875e-01   4.3945312e-01   4.3945312e-01   4.3457031e-01   4.2968750e-01   4.2480469e-01   4.1992188e-01   4.1503906e-01   4.1503906e-01   4.1015625e-01   4.0527344e-01   4.0039062e-01   4.0039062e-01   4.0039062e-01   3.9550781e-01   3.9062500e-01   3.9062500e-01   3.8574219e-01   3.9062500e-01   3.9062500e-01   4.0039062e-01   4.1015625e-01   4.2480469e-01   4.4921875e-01   4.7851562e-01   5.0781250e-01   5.4199219e-01   5.8105469e-01   6.2500000e-01   6.6406250e-01   7.0312500e-01   7.4218750e-01   7.8125000e-01   8.2031250e-01   8.5449219e-01   8.8378906e-01   9.1308594e-01   9.3750000e-01   9.5214844e-01   9.7167969e-01   9.9121094e-01   9.9609375e-01   1.0058594e+00   1.0107422e+00   1.0107422e+00   1.0107422e+00   1.0058594e+00   9.9609375e-01   9.8632812e-01   9.7167969e-01   9.6191406e-01   9.4238281e-01   9.2773438e-01   9.1308594e-01   8.9355469e-01   8.8378906e-01   8.6425781e-01   8.4960938e-01   8.3496094e-01   8.1542969e-01   8.0566406e-01   7.9101562e-01   7.7148438e-01   7.6171875e-01   7.4707031e-01   7.2753906e-01   7.1289062e-01   6.9824219e-01   6.8359375e-01   6.6894531e-01   6.5429688e-01   6.4453125e-01   6.2988281e-01   6.1523438e-01   6.0546875e-01   5.9082031e-01   5.8105469e-01   5.6640625e-01   5.5664062e-01   5.4687500e-01   5.3222656e-01   5.2246094e-01   5.1269531e-01   5.0292969e-01   4.8828125e-01   4.8339844e-01   4.7363281e-01   4.6875000e-01   4.5898438e-01   4.4921875e-01   4.3945312e-01   4.3457031e-01   4.2968750e-01   4.2480469e-01   4.1503906e-01   4.1503906e-01   4.0527344e-01   4.0039062e-01   3.9550781e-01   3.9062500e-01   3.8574219e-01   3.8574219e-01   3.7597656e-01   3.7597656e-01   3.6621094e-01   3.6621094e-01   3.6621094e-01   3.6132812e-01   3.6132812e-01   3.5644531e-01   3.5644531e-01   3.5644531e-01   3.5644531e-01   3.6132812e-01   3.6621094e-01   3.7597656e-01   3.9062500e-01   4.1015625e-01   4.2968750e-01   4.5898438e-01   4.9804688e-01   5.3222656e-01   5.7128906e-01   6.0546875e-01   6.4941406e-01   6.9335938e-01   7.3242188e-01   7.7148438e-01   8.0566406e-01   8.3984375e-01   8.6914062e-01   8.8867188e-01   9.1308594e-01   9.3750000e-01   9.5703125e-01   9.7167969e-01   9.8144531e-01   9.8632812e-01   9.9121094e-01   9.9121094e-01   9.8632812e-01   9.8144531e-01   9.7167969e-01   9.6191406e-01   9.5214844e-01   9.3750000e-01   9.2285156e-01   9.0332031e-01   8.8867188e-01   8.7402344e-01   8.5449219e-01   8.3984375e-01   8.2519531e-01   8.1054688e-01   7.9101562e-01   7.7636719e-01   7.6171875e-01   7.4707031e-01   7.3242188e-01   7.1777344e-01   7.0312500e-01   6.8847656e-01   6.7382812e-01   6.5917969e-01   6.4453125e-01   6.3476562e-01   6.2011719e-01   6.0546875e-01   5.9570312e-01   5.8105469e-01   5.7128906e-01   5.5664062e-01   5.4687500e-01   5.3222656e-01   5.2246094e-01   5.0781250e-01   4.9804688e-01   4.8828125e-01   4.8339844e-01   4.7363281e-01   4.6386719e-01   4.5410156e-01   4.4921875e-01   4.3945312e-01   4.3457031e-01   4.2968750e-01   4.2480469e-01   4.1503906e-01   4.1015625e-01   4.0527344e-01   4.0039062e-01   3.9550781e-01   3.9550781e-01   3.9062500e-01   3.8574219e-01   3.8085938e-01   3.8085938e-01   3.7597656e-01   3.7109375e-01   3.7109375e-01   3.6621094e-01   3.6621094e-01   3.7597656e-01   3.8574219e-01   4.0039062e-01   4.2480469e-01   4.4433594e-01   4.7851562e-01   5.0781250e-01   5.4199219e-01   5.8105469e-01   6.2011719e-01   6.5429688e-01   6.9335938e-01   7.2753906e-01   7.6171875e-01   7.8613281e-01   8.1542969e-01   8.4472656e-01   8.6425781e-01   8.8378906e-01   8.9843750e-01   9.1308594e-01   9.2285156e-01   9.2773438e-01   9.3261719e-01   9.2773438e-01   9.2773438e-01   9.1796875e-01   9.1308594e-01   9.0332031e-01   8.8867188e-01   8.7402344e-01   8.5937500e-01   8.4960938e-01   8.3496094e-01   8.2031250e-01   8.0566406e-01   7.9101562e-01   7.8125000e-01   7.6171875e-01   7.5195312e-01   7.3730469e-01   7.2265625e-01   7.1289062e-01   6.9824219e-01   6.8359375e-01   6.6894531e-01   6.5917969e-01   6.4941406e-01   6.3476562e-01   6.2500000e-01   6.1035156e-01   6.0058594e-01   5.8593750e-01   5.7128906e-01   5.6152344e-01   5.4687500e-01   5.3710938e-01   5.2734375e-01   5.1757812e-01   5.0292969e-01   4.9804688e-01   4.8339844e-01   4.7363281e-01   4.6386719e-01   4.5410156e-01   4.4433594e-01   4.3945312e-01   4.2968750e-01   4.1992188e-01   4.1015625e-01   4.0039062e-01   3.9550781e-01   3.9062500e-01   3.8085938e-01   3.8085938e-01   3.7109375e-01   3.6621094e-01   3.6132812e-01   3.5644531e-01   3.5156250e-01   3.4667969e-01   3.4179688e-01   3.4179688e-01   3.3691406e-01   3.3691406e-01   3.3203125e-01   3.2714844e-01   3.2226562e-01   3.2226562e-01   3.1738281e-01   3.1738281e-01   3.1738281e-01   3.1250000e-01   3.1738281e-01   3.1738281e-01   3.2226562e-01   3.3203125e-01   3.4667969e-01   3.7109375e-01   3.9550781e-01   4.2480469e-01   4.6386719e-01   4.9804688e-01   5.3710938e-01   5.7617188e-01   6.2011719e-01   6.6406250e-01   6.9824219e-01   7.3242188e-01   7.7148438e-01   8.0078125e-01   8.3007812e-01   8.5449219e-01   8.7402344e-01   8.9355469e-01   9.0332031e-01   9.1308594e-01   9.2285156e-01   9.2773438e-01   9.2773438e-01   9.2285156e-01   9.1796875e-01   9.1308594e-01   9.0332031e-01   8.9355469e-01   8.8378906e-01   8.7402344e-01   8.5937500e-01   8.4960938e-01   8.3496094e-01   8.2031250e-01   8.0566406e-01   7.9101562e-01   7.7636719e-01   7.6171875e-01   7.4707031e-01   7.3242188e-01   7.1777344e-01   7.0312500e-01   6.8359375e-01   6.6894531e-01   6.5429688e-01   6.3964844e-01   6.2988281e-01   6.1523438e-01   6.0058594e-01   5.9082031e-01   5.7617188e-01   5.6152344e-01   5.5175781e-01   5.4199219e-01   5.3222656e-01   5.2246094e-01   5.0781250e-01   4.9804688e-01   4.9316406e-01   4.7851562e-01   4.7363281e-01   4.6386719e-01   4.5898438e-01   4.4921875e-01   4.3945312e-01   4.3457031e-01   4.2480469e-01   4.1992188e-01   4.1503906e-01   4.1015625e-01   4.0039062e-01   3.9550781e-01   3.9062500e-01   3.8574219e-01   3.8085938e-01   3.7597656e-01   3.7109375e-01   3.6132812e-01   3.6132812e-01   3.5156250e-01   3.4667969e-01   3.4667969e-01   3.3691406e-01   3.3691406e-01   3.3691406e-01   3.3691406e-01   3.3691406e-01   3.4179688e-01   3.5644531e-01   3.7597656e-01   3.9550781e-01   4.1992188e-01   4.5410156e-01   4.8828125e-01   5.2734375e-01   5.6152344e-01   5.9570312e-01   6.3476562e-01   6.7871094e-01   7.1289062e-01   7.4218750e-01   7.7148438e-01   8.0078125e-01   8.2519531e-01   8.4472656e-01   8.6425781e-01   8.7890625e-01   8.8867188e-01   8.9843750e-01   8.9843750e-01   8.9843750e-01   8.9843750e-01   8.8867188e-01   8.8378906e-01   8.7402344e-01   8.6425781e-01   8.5449219e-01   8.3984375e-01   8.3007812e-01   8.1542969e-01   8.0566406e-01   7.9589844e-01   7.8613281e-01   7.7148438e-01   7.6171875e-01   7.5195312e-01   7.4218750e-01   7.3242188e-01   7.2265625e-01   7.1289062e-01   7.0312500e-01   6.9335938e-01   6.8847656e-01   6.7382812e-01   6.6894531e-01   6.5429688e-01   6.4453125e-01   6.3476562e-01   6.2011719e-01   6.1523438e-01   6.0546875e-01   5.9082031e-01   5.8593750e-01   5.7617188e-01   5.6152344e-01   5.5664062e-01   5.4687500e-01   5.3710938e-01   5.2734375e-01   5.2246094e-01   5.1269531e-01   5.0781250e-01   4.9804688e-01   4.9316406e-01   4.8339844e-01   4.7851562e-01   4.6875000e-01   4.6386719e-01   4.5410156e-01   4.4433594e-01   4.3457031e-01   4.2968750e-01   4.1992188e-01   4.1015625e-01   3.9550781e-01   3.9550781e-01   3.8085938e-01   3.7597656e-01   3.6132812e-01   3.5644531e-01   3.5156250e-01   3.4179688e-01   3.3203125e-01   3.2714844e-01   3.2226562e-01   3.2714844e-01   3.3203125e-01   3.4667969e-01   3.6621094e-01   3.9062500e-01   4.2480469e-01   4.5410156e-01   4.9316406e-01   5.3222656e-01   5.7128906e-01   6.1035156e-01   6.5429688e-01   6.9824219e-01   7.3730469e-01   7.6660156e-01   8.0078125e-01   8.3496094e-01   8.5937500e-01   8.8378906e-01   9.0332031e-01   9.1796875e-01   9.2773438e-01   9.3750000e-01   9.3750000e-01   9.3750000e-01   9.3750000e-01   9.3261719e-01   9.2285156e-01   9.1796875e-01   9.0820312e-01   8.9355469e-01   8.8378906e-01   8.6914062e-01   8.5449219e-01   8.4472656e-01   8.3007812e-01   8.1542969e-01   8.0078125e-01   7.9101562e-01   7.7636719e-01   7.6660156e-01   7.5195312e-01   7.4218750e-01   7.2753906e-01   7.1777344e-01   7.0800781e-01   6.9824219e-01   6.8359375e-01   6.7382812e-01   6.5917969e-01   6.4941406e-01   6.3964844e-01   6.2988281e-01   6.2011719e-01   6.0546875e-01   5.9570312e-01   5.8593750e-01   5.7617188e-01   5.7128906e-01   5.6152344e-01   5.4687500e-01   5.4199219e-01   5.3222656e-01   5.2246094e-01   5.1757812e-01   5.0781250e-01   5.0292969e-01   4.9804688e-01   4.8828125e-01   4.8828125e-01   4.7851562e-01   4.7363281e-01   4.6875000e-01   4.6386719e-01   4.5898438e-01   4.5410156e-01   4.4921875e-01   4.4433594e-01   4.3945312e-01   4.3945312e-01   4.3457031e-01   4.2480469e-01   4.2480469e-01   4.1992188e-01   4.1503906e-01   4.1503906e-01   4.1015625e-01   4.1015625e-01   4.1015625e-01   4.1015625e-01   4.1503906e-01   4.2480469e-01   4.3945312e-01   4.6386719e-01   4.8828125e-01   5.1757812e-01   5.5175781e-01   5.9082031e-01   6.2988281e-01   6.6894531e-01   7.0800781e-01   7.5195312e-01   7.9101562e-01   8.2519531e-01   8.5449219e-01   8.8378906e-01   9.1796875e-01   9.4238281e-01   9.6191406e-01   9.8144531e-01   9.9609375e-01   1.0058594e+00   1.0156250e+00   1.0205078e+00   1.0205078e+00   1.0205078e+00   1.0156250e+00   1.0107422e+00   1.0009766e+00   9.8632812e-01   9.7167969e-01   9.6191406e-01   9.4726562e-01   9.3261719e-01   9.1308594e-01   8.9843750e-01   8.8378906e-01   8.6914062e-01   8.5449219e-01   8.3984375e-01   8.2031250e-01   8.0566406e-01   7.9101562e-01   7.8125000e-01   7.6171875e-01   7.4707031e-01   7.3242188e-01   7.1777344e-01   7.0312500e-01   6.8847656e-01   6.7382812e-01   6.6406250e-01   6.4941406e-01   6.4453125e-01   6.3964844e-01   6.3476562e-01   6.3964844e-01   6.4453125e-01   6.4941406e-01   6.5917969e-01   6.7382812e-01   6.8847656e-01   7.0312500e-01   7.1289062e-01   7.2753906e-01   7.4218750e-01   7.5195312e-01   7.6171875e-01   7.6660156e-01   7.7148438e-01   7.7636719e-01   7.7148438e-01   7.6660156e-01   7.6171875e-01   7.5195312e-01   7.4218750e-01   7.2753906e-01   7.1289062e-01   7.0800781e-01   6.9335938e-01   6.8359375e-01   6.6894531e-01   6.5917969e-01   6.4453125e-01   6.2988281e-01   6.2011719e-01   6.1035156e-01   6.0058594e-01   5.8593750e-01   5.8105469e-01   5.6640625e-01   5.5664062e-01   5.5175781e-01   5.3710938e-01   5.3222656e-01   5.2246094e-01   5.1269531e-01   5.0292969e-01   4.9316406e-01   4.8339844e-01   4.7851562e-01   4.6875000e-01   4.5898438e-01   4.5410156e-01   4.4433594e-01   4.3457031e-01   4.2968750e-01   4.2480469e-01   4.1503906e-01   4.0527344e-01   4.0039062e-01   3.9550781e-01   3.9062500e-01   3.8574219e-01   3.8085938e-01   3.7597656e-01   3.7109375e-01   3.7109375e-01   3.6621094e-01   3.5644531e-01   3.5644531e-01   3.5156250e-01   3.4667969e-01   3.4667969e-01   3.4179688e-01   3.4179688e-01   3.3691406e-01   3.3203125e-01   3.3203125e-01   3.2714844e-01   3.2714844e-01   3.2714844e-01   3.2226562e-01   3.2226562e-01   3.2226562e-01   3.1738281e-01   3.1738281e-01   3.1250000e-01   3.1250000e-01   3.1250000e-01   3.0761719e-01   3.0761719e-01   3.0273438e-01   3.0273438e-01   3.0273438e-01   3.0273438e-01   3.0273438e-01   3.0273438e-01   2.9785156e-01   3.0273438e-01   2.9785156e-01   3.0273438e-01   3.0273438e-01   2.9785156e-01   2.9785156e-01   2.9785156e-01   2.9785156e-01   2.9785156e-01   2.9785156e-01   3.0273438e-01   3.0273438e-01   3.1250000e-01   3.2226562e-01   3.4667969e-01   3.6621094e-01   4.0527344e-01   4.3457031e-01   4.7851562e-01   5.2734375e-01   5.7617188e-01   6.2988281e-01   6.7871094e-01   7.2753906e-01   7.8125000e-01   8.2519531e-01   8.6425781e-01   9.0820312e-01   9.4238281e-01   9.7656250e-01   1.0009766e+00   1.0253906e+00   1.0498047e+00   1.0644531e+00   1.0742188e+00   1.0791016e+00   1.0791016e+00   1.0791016e+00   1.0742188e+00   1.0644531e+00   1.0546875e+00   1.0449219e+00   1.0302734e+00   1.0205078e+00   1.0009766e+00   9.8632812e-01   9.7656250e-01   9.6191406e-01   9.4238281e-01   9.2773438e-01   9.1308594e-01   8.9843750e-01   8.7890625e-01   8.6425781e-01   8.4472656e-01   8.3007812e-01   8.1542969e-01   8.0078125e-01   7.8613281e-01   7.7148438e-01   7.5683594e-01   7.4218750e-01   7.2753906e-01   7.1289062e-01   7.0312500e-01   6.8847656e-01   6.7382812e-01   6.5917969e-01   6.4941406e-01   6.3476562e-01   6.2500000e-01   6.1035156e-01   6.0058594e-01   5.9082031e-01   5.8105469e-01   5.7128906e-01   5.6152344e-01   5.5175781e-01   5.4199219e-01   5.3222656e-01   5.2246094e-01   5.1269531e-01   5.0292969e-01   4.9316406e-01   4.8339844e-01   4.7851562e-01   4.6875000e-01   4.6386719e-01   4.5898438e-01   4.4921875e-01   4.3945312e-01   4.3457031e-01   4.2968750e-01   4.2480469e-01   4.1992188e-01   4.1015625e-01   4.0527344e-01   4.0039062e-01   3.9550781e-01   3.9062500e-01   3.8574219e-01   3.8085938e-01   3.7597656e-01   3.6621094e-01   3.6621094e-01   3.6132812e-01   3.6132812e-01   3.6132812e-01   3.6621094e-01   3.7109375e-01   3.8574219e-01   4.0039062e-01   4.2480469e-01   4.4921875e-01   4.8828125e-01   5.1757812e-01   5.5175781e-01   5.9570312e-01   6.3476562e-01   6.6894531e-01   7.1289062e-01   7.4707031e-01   7.8125000e-01   8.1054688e-01   8.3496094e-01   8.5937500e-01   8.7890625e-01   8.9843750e-01   9.1308594e-01   9.2285156e-01   9.3261719e-01   9.3261719e-01   9.2773438e-01   9.2773438e-01   9.2285156e-01   9.1308594e-01   9.0820312e-01   8.9355469e-01   8.8378906e-01   8.6914062e-01   8.5449219e-01   8.4472656e-01   8.3007812e-01   8.1542969e-01   8.0078125e-01   7.8613281e-01   7.7636719e-01   7.6171875e-01   7.4707031e-01   7.3730469e-01   7.2265625e-01   7.0800781e-01   6.9824219e-01   6.8359375e-01   6.6894531e-01   6.5917969e-01   6.4941406e-01   6.3476562e-01   6.2500000e-01   6.1035156e-01   6.0058594e-01   5.8593750e-01   5.7617188e-01   5.6640625e-01   5.5664062e-01   5.4687500e-01   5.3710938e-01   5.2734375e-01   5.1757812e-01   5.0292969e-01   4.9804688e-01   4.8828125e-01   4.7851562e-01   4.7363281e-01   4.6386719e-01   4.6386719e-01   4.5410156e-01   4.4433594e-01   4.3945312e-01   4.3945312e-01   4.2968750e-01   4.2968750e-01   4.1992188e-01   4.1992188e-01   4.1503906e-01   4.1015625e-01   4.0527344e-01   4.0527344e-01   4.0039062e-01   3.9550781e-01   3.9550781e-01   3.9062500e-01   3.9062500e-01   3.8574219e-01   3.8574219e-01   3.8574219e-01   3.9062500e-01   3.9550781e-01   4.0527344e-01   4.1992188e-01   4.3945312e-01   4.6386719e-01   4.9316406e-01   5.2734375e-01   5.6640625e-01   6.0546875e-01   6.3964844e-01   6.8359375e-01   7.1777344e-01   7.4707031e-01   7.8613281e-01   8.1054688e-01   8.3984375e-01   8.6425781e-01   8.8378906e-01   9.0332031e-01   9.1796875e-01   9.2285156e-01   9.3261719e-01   9.3750000e-01   9.3750000e-01   9.3750000e-01   9.3261719e-01   9.2285156e-01   9.1308594e-01   9.0332031e-01   8.9355469e-01   8.8378906e-01   8.6914062e-01   8.5937500e-01   8.4472656e-01   8.3007812e-01   8.2031250e-01   8.0566406e-01   7.9101562e-01   7.8613281e-01   7.7148438e-01   7.5683594e-01   7.4707031e-01   7.3242188e-01   7.2265625e-01   7.0800781e-01   6.9824219e-01   6.8847656e-01   6.7871094e-01   6.6894531e-01   6.5429688e-01   6.4453125e-01   6.3476562e-01   6.2500000e-01   6.1035156e-01   6.0058594e-01   5.9082031e-01   5.8105469e-01   5.7128906e-01   5.6152344e-01   5.5175781e-01   5.4199219e-01   5.3710938e-01   5.2246094e-01   5.1757812e-01   5.1269531e-01   4.9804688e-01   4.9316406e-01   4.8339844e-01   4.7363281e-01   4.6875000e-01   4.5898438e-01   4.4921875e-01   4.4433594e-01   4.3457031e-01   4.2480469e-01   4.1992188e-01   4.1015625e-01   4.0527344e-01   4.0039062e-01   3.9550781e-01   3.9062500e-01   3.8574219e-01   3.8085938e-01   3.7597656e-01   3.7109375e-01   3.6621094e-01   3.6621094e-01   3.5644531e-01   3.5644531e-01   3.5644531e-01   3.5156250e-01   3.5156250e-01   3.4667969e-01   3.5156250e-01   3.5644531e-01   3.7109375e-01   3.9062500e-01   4.1015625e-01   4.3945312e-01   4.7363281e-01   5.0781250e-01   5.4199219e-01   5.8593750e-01   6.3476562e-01   6.7871094e-01   7.1777344e-01   7.6171875e-01   8.0078125e-01   8.3496094e-01   8.6914062e-01   9.0332031e-01   9.2773438e-01   9.4726562e-01   9.7167969e-01   9.8144531e-01   9.9609375e-01   1.0058594e+00   1.0107422e+00   1.0107422e+00   1.0058594e+00   1.0009766e+00   9.9121094e-01   9.8632812e-01   9.7167969e-01   9.5703125e-01   9.4238281e-01   9.2773438e-01   9.1308594e-01   8.9843750e-01   8.8378906e-01   8.6425781e-01   8.4960938e-01   8.3496094e-01   8.2031250e-01   8.0566406e-01   7.9101562e-01   7.7636719e-01   7.6171875e-01   7.4707031e-01   7.3242188e-01   7.1777344e-01   7.0800781e-01   6.9335938e-01   6.7871094e-01   6.6406250e-01   6.4941406e-01   6.3964844e-01   6.2500000e-01   6.1035156e-01   6.0546875e-01   5.8593750e-01   5.7617188e-01   5.6640625e-01   5.5664062e-01   5.4687500e-01   5.3710938e-01   5.2734375e-01   5.1757812e-01   5.0781250e-01   4.9804688e-01   4.8828125e-01   4.8339844e-01   4.7363281e-01   4.6875000e-01   4.5898438e-01   4.5410156e-01   4.4433594e-01   4.3945312e-01   4.3457031e-01   4.2480469e-01   4.1503906e-01   4.1503906e-01   4.1015625e-01   4.0039062e-01   4.0039062e-01   3.9062500e-01   3.9062500e-01   3.8574219e-01   3.8085938e-01   3.8085938e-01   3.7597656e-01   3.7109375e-01   3.7109375e-01   3.6621094e-01   3.6621094e-01   3.6621094e-01   3.6132812e-01   3.6621094e-01   3.7109375e-01   3.8085938e-01   3.9550781e-01   4.1992188e-01   4.4921875e-01   4.7851562e-01   5.0781250e-01   5.5175781e-01   5.8593750e-01   6.2988281e-01   6.6894531e-01   7.0800781e-01   7.4218750e-01   7.8125000e-01   8.1054688e-01   8.3984375e-01   8.6914062e-01   8.9355469e-01   9.1308594e-01   9.2773438e-01   9.4238281e-01   9.5214844e-01   9.6191406e-01   9.6679688e-01   9.6191406e-01   9.5703125e-01   9.5214844e-01   9.4238281e-01   9.3261719e-01   9.1796875e-01   9.0332031e-01   8.8867188e-01   8.7402344e-01   8.6425781e-01   8.4472656e-01   8.3007812e-01   8.2031250e-01   8.0566406e-01   7.8613281e-01   7.7148438e-01   7.5683594e-01   7.4218750e-01   7.2753906e-01   7.1289062e-01   6.9824219e-01   6.8359375e-01   6.6894531e-01   6.4941406e-01   6.3964844e-01   6.2500000e-01   6.1035156e-01   5.9570312e-01   5.8105469e-01   5.6640625e-01   5.5664062e-01   5.4687500e-01   5.3710938e-01   5.1757812e-01   5.1269531e-01   4.9804688e-01   4.8828125e-01   4.7851562e-01   4.7363281e-01   4.6386719e-01   4.5410156e-01   4.4921875e-01   4.4433594e-01   4.3457031e-01   4.2480469e-01   4.1992188e-01   4.1503906e-01   4.1015625e-01   4.0039062e-01   4.0039062e-01   3.9062500e-01   3.8085938e-01   3.8085938e-01   3.7597656e-01   3.7109375e-01   3.6621094e-01   3.6132812e-01   3.5644531e-01   3.5156250e-01   3.4667969e-01   3.4179688e-01   3.3691406e-01   3.3691406e-01   3.3203125e-01   3.2714844e-01   3.2714844e-01   3.2226562e-01   3.1738281e-01   3.1738281e-01   3.1250000e-01   3.1250000e-01   3.1250000e-01   3.1250000e-01   3.1738281e-01   3.2714844e-01   3.4179688e-01   3.6621094e-01   3.9550781e-01   4.2480469e-01   4.6386719e-01   4.9316406e-01   5.3710938e-01   5.7617188e-01   6.1523438e-01   6.5917969e-01   6.9824219e-01   7.3730469e-01   7.7148438e-01   8.0078125e-01   8.3007812e-01   8.5449219e-01   8.7890625e-01   8.9355469e-01   9.0820312e-01   9.1796875e-01   9.2285156e-01   9.2773438e-01   9.2773438e-01   9.2285156e-01   9.1308594e-01   9.0820312e-01   8.9843750e-01   8.8867188e-01   8.7402344e-01   8.5937500e-01   8.4960938e-01   8.3496094e-01   8.2519531e-01   8.1054688e-01   8.0078125e-01   7.8613281e-01   7.7636719e-01   7.6171875e-01   7.5195312e-01   7.3730469e-01   7.2753906e-01   7.1777344e-01   7.0312500e-01   6.9335938e-01   6.8359375e-01   6.7382812e-01   6.5917969e-01   6.4941406e-01   6.3964844e-01   6.2988281e-01   6.1523438e-01   6.1035156e-01   6.0058594e-01   5.9082031e-01   5.8105469e-01   5.7617188e-01   5.6152344e-01   5.5664062e-01   5.4687500e-01   5.4199219e-01   5.3222656e-01   5.2246094e-01   5.1757812e-01   5.0781250e-01   5.0292969e-01   4.9804688e-01   4.9316406e-01   4.8828125e-01   4.7851562e-01   4.7363281e-01   4.6875000e-01   4.6386719e-01   4.5898438e-01   4.5410156e-01   4.4921875e-01   4.4433594e-01   4.3945312e-01   4.3457031e-01   4.3457031e-01   4.2968750e-01   4.2480469e-01   4.2480469e-01   4.1503906e-01   4.1503906e-01   4.1503906e-01   4.1992188e-01   4.1992188e-01   4.3457031e-01   4.4921875e-01   4.6875000e-01   4.9316406e-01   5.2246094e-01   5.5664062e-01   5.9082031e-01   6.2988281e-01   6.6894531e-01   7.0312500e-01   7.4218750e-01   7.7636719e-01   8.0566406e-01   8.3984375e-01   8.6425781e-01   8.9355469e-01   9.1308594e-01   9.2773438e-01   9.4726562e-01   9.6191406e-01   9.6679688e-01   9.7656250e-01   9.7656250e-01   9.7656250e-01   9.7167969e-01   9.6191406e-01   9.5214844e-01   9.3750000e-01   9.2773438e-01   9.1796875e-01   8.9843750e-01   8.8867188e-01   8.6914062e-01   8.5449219e-01   8.4472656e-01   8.3007812e-01   8.1542969e-01   8.0078125e-01   7.8613281e-01   7.7148438e-01   7.5683594e-01   7.4218750e-01   7.3242188e-01   7.1777344e-01   7.0800781e-01   6.8847656e-01   6.7871094e-01   6.6894531e-01   6.5429688e-01   6.4453125e-01   6.2988281e-01   6.1523438e-01   6.0546875e-01   5.9570312e-01   5.8105469e-01   5.7128906e-01   5.6152344e-01   5.4687500e-01   5.3710938e-01   5.2734375e-01   5.1757812e-01   5.0781250e-01   5.0292969e-01   4.9316406e-01   4.8339844e-01   4.7363281e-01   4.6875000e-01   4.6386719e-01   4.5410156e-01   4.4921875e-01   4.4433594e-01   4.3457031e-01   4.3457031e-01   4.1992188e-01   4.1992188e-01   4.1503906e-01   4.1015625e-01   4.0527344e-01   4.0039062e-01   3.9550781e-01   3.9550781e-01   3.8574219e-01   3.8574219e-01   3.8085938e-01   3.7597656e-01   3.7597656e-01   3.7597656e-01   3.7109375e-01   3.7109375e-01   3.6621094e-01   3.6621094e-01   3.6132812e-01   3.6132812e-01   3.5644531e-01   3.5644531e-01   3.5644531e-01   3.6132812e-01   3.6132812e-01   3.7597656e-01   3.9550781e-01   4.1992188e-01   4.4433594e-01   4.7851562e-01   5.1757812e-01   5.6152344e-01   5.9570312e-01   6.4453125e-01   6.8847656e-01   7.3242188e-01   7.7148438e-01   8.1054688e-01   8.4960938e-01   8.8378906e-01   9.1308594e-01   9.4238281e-01   9.6679688e-01   9.8632812e-01   1.0058594e+00   1.0205078e+00   1.0302734e+00   1.0351562e+00   1.0400391e+00   1.0400391e+00   1.0351562e+00   1.0302734e+00   1.0205078e+00   1.0058594e+00   9.9609375e-01   9.8144531e-01   9.6191406e-01   9.5214844e-01   9.3261719e-01   9.1796875e-01   9.0332031e-01   8.8867188e-01   8.7402344e-01   8.5449219e-01   8.3984375e-01   8.2519531e-01   8.1054688e-01   7.9589844e-01   7.8125000e-01   7.6660156e-01   7.5195312e-01   7.3730469e-01   7.2265625e-01   7.0800781e-01   6.8847656e-01   6.7871094e-01   6.6406250e-01   6.4941406e-01   6.3476562e-01   6.2011719e-01   6.1035156e-01   5.9570312e-01   5.8593750e-01   5.7617188e-01   5.6152344e-01   5.5175781e-01   5.4199219e-01   5.3222656e-01   5.2246094e-01   5.1269531e-01   5.0292969e-01   4.9804688e-01   4.8828125e-01   4.7851562e-01   4.7363281e-01   4.6386719e-01   4.5898438e-01   4.5410156e-01   4.4433594e-01   4.3945312e-01   4.3457031e-01   4.2480469e-01   4.1992188e-01   4.1503906e-01   4.1503906e-01   4.1015625e-01   4.0527344e-01   4.0039062e-01   4.0039062e-01   3.9550781e-01   3.9550781e-01   3.9062500e-01   3.9062500e-01   3.8574219e-01   3.8085938e-01   3.8085938e-01   3.8085938e-01   3.8085938e-01   3.8085938e-01   3.8085938e-01   3.9062500e-01   3.9550781e-01   4.1015625e-01   4.3457031e-01   4.5898438e-01   4.8828125e-01   5.1757812e-01   5.5175781e-01   5.9082031e-01   6.2988281e-01   6.6894531e-01   7.0800781e-01   7.4707031e-01   7.8613281e-01   8.1054688e-01   8.4472656e-01   8.7402344e-01   8.9843750e-01   9.1796875e-01   9.3261719e-01   9.5214844e-01   9.6191406e-01   9.7167969e-01   9.7656250e-01   9.7656250e-01   9.7656250e-01   9.7167969e-01   9.6191406e-01   9.5214844e-01   9.4238281e-01   9.3261719e-01   9.1796875e-01   9.0332031e-01   8.9355469e-01   8.7402344e-01   8.6425781e-01   8.4960938e-01   8.3007812e-01   8.1542969e-01   8.0078125e-01   7.8613281e-01   7.7636719e-01   7.6171875e-01   7.4707031e-01   7.3242188e-01   7.1777344e-01   7.0312500e-01   6.8847656e-01   6.7382812e-01   6.6406250e-01   6.4941406e-01   6.3476562e-01   6.2500000e-01   6.1035156e-01   5.9570312e-01   5.8105469e-01   5.7128906e-01   5.6152344e-01   5.4687500e-01   5.3710938e-01   5.2734375e-01   5.1269531e-01   5.0781250e-01   4.9804688e-01   4.8828125e-01   4.8339844e-01   4.7363281e-01   4.6875000e-01   4.5898438e-01   4.5410156e-01   4.4921875e-01   4.3945312e-01   4.3457031e-01   4.2480469e-01   4.1992188e-01   4.1503906e-01   4.0527344e-01   4.0039062e-01   3.9062500e-01   3.9062500e-01   3.8574219e-01   3.8085938e-01   3.7597656e-01   3.7597656e-01   3.7109375e-01   3.7109375e-01   3.7109375e-01   3.6621094e-01   3.6621094e-01   3.6621094e-01   3.6132812e-01   3.6132812e-01   3.6132812e-01   3.6132812e-01   3.6621094e-01   3.7109375e-01   3.8574219e-01   3.9550781e-01   4.1992188e-01   4.4921875e-01   4.7363281e-01   5.0781250e-01   5.4687500e-01   5.8593750e-01   6.2500000e-01   6.6894531e-01   7.0312500e-01   7.4707031e-01   7.7636719e-01   8.1054688e-01   8.3984375e-01   8.6425781e-01   8.8867188e-01   9.0820312e-01   9.2773438e-01   9.4238281e-01   9.4726562e-01   9.5214844e-01   9.5703125e-01   9.5703125e-01   9.5214844e-01   9.4726562e-01   9.3750000e-01   9.3261719e-01   9.1796875e-01   9.0820312e-01   8.9843750e-01   8.8378906e-01   8.7402344e-01   8.5937500e-01   8.4472656e-01   8.3496094e-01   8.2031250e-01   8.0566406e-01   7.9589844e-01   7.8125000e-01   7.6660156e-01   7.5683594e-01   7.4218750e-01   7.3242188e-01   7.1777344e-01   7.0312500e-01   6.9335938e-01   6.7871094e-01   6.6894531e-01   6.5429688e-01   6.4453125e-01   6.3476562e-01   6.2011719e-01   6.1523438e-01   6.0546875e-01   5.9082031e-01   5.8593750e-01   5.7617188e-01   5.6640625e-01   5.5664062e-01   5.5175781e-01   5.4199219e-01   5.3222656e-01   5.2734375e-01   5.1757812e-01   5.0781250e-01   5.0781250e-01   4.9804688e-01   4.9316406e-01   4.8339844e-01   4.7851562e-01   4.7363281e-01   4.6875000e-01   4.6386719e-01   4.5898438e-01   4.4921875e-01   4.4433594e-01   4.3945312e-01   4.3945312e-01   4.3457031e-01   4.2968750e-01   4.2968750e-01   4.2480469e-01   4.2480469e-01   4.1992188e-01   4.1503906e-01   4.1503906e-01   4.1015625e-01   4.0527344e-01   4.0527344e-01   4.0039062e-01   4.0039062e-01   4.0039062e-01   4.0039062e-01   4.1015625e-01   4.1992188e-01   4.4433594e-01   4.6386719e-01   4.9316406e-01   5.2734375e-01   5.6152344e-01   6.0058594e-01   6.3964844e-01   6.8847656e-01   7.3242188e-01   7.7148438e-01   8.0566406e-01   8.4472656e-01   8.7890625e-01   9.1308594e-01   9.4238281e-01   9.7167969e-01   9.9609375e-01   1.0156250e+00   1.0302734e+00   1.0449219e+00   1.0546875e+00   1.0644531e+00   1.0693359e+00   1.0693359e+00   1.0693359e+00   1.0644531e+00   1.0595703e+00   1.0498047e+00   1.0351562e+00   1.0205078e+00   1.0058594e+00   9.9121094e-01   9.7656250e-01   9.6191406e-01   9.4726562e-01   9.2773438e-01   9.1308594e-01   8.9355469e-01   8.7890625e-01   8.6425781e-01   8.4472656e-01   8.3007812e-01   8.1054688e-01   7.9589844e-01   7.8125000e-01   7.6660156e-01   7.5195312e-01   7.3242188e-01   7.1777344e-01   6.9824219e-01   6.8359375e-01   6.6894531e-01   6.5917969e-01   6.3964844e-01   6.2988281e-01   6.1035156e-01   6.0058594e-01   5.8593750e-01   5.7128906e-01   5.5664062e-01   5.4199219e-01   5.3222656e-01   5.1757812e-01   5.0781250e-01   4.9804688e-01   4.8339844e-01   4.7363281e-01   4.6875000e-01   4.5898438e-01   4.4921875e-01   4.4433594e-01   4.2968750e-01   4.2480469e-01   4.1503906e-01   4.1015625e-01   4.0527344e-01   3.9550781e-01   3.9550781e-01   3.9062500e-01   3.8085938e-01   3.8085938e-01   3.7597656e-01   3.7109375e-01   3.7109375e-01   3.6621094e-01   3.6132812e-01   3.6132812e-01   3.5644531e-01   3.5156250e-01   3.4667969e-01   3.4667969e-01   3.4667969e-01   3.4667969e-01   3.5156250e-01   3.6132812e-01   3.7109375e-01   3.9062500e-01   4.1503906e-01   4.3945312e-01   4.7363281e-01   5.1269531e-01   5.4687500e-01   5.9082031e-01   6.2988281e-01   6.7382812e-01   7.0800781e-01   7.5195312e-01   7.8613281e-01   8.1542969e-01   8.4960938e-01   8.7890625e-01   8.9843750e-01   9.2285156e-01   9.4238281e-01   9.5703125e-01   9.7167969e-01   9.7656250e-01   9.8144531e-01   9.8144531e-01   9.7656250e-01   9.7656250e-01   9.6679688e-01   9.5214844e-01   9.4238281e-01   9.2773438e-01   9.1308594e-01   9.0332031e-01   8.8378906e-01   8.7402344e-01   8.5449219e-01   8.4472656e-01   8.3007812e-01   8.1054688e-01   7.9589844e-01   7.8613281e-01   7.6660156e-01   7.5195312e-01   7.4218750e-01   7.2265625e-01   7.0800781e-01   6.9335938e-01   6.7871094e-01   6.6406250e-01   6.4941406e-01   6.3476562e-01   6.2011719e-01   6.1035156e-01   5.9570312e-01   5.8105469e-01   5.6640625e-01   5.5664062e-01   5.4199219e-01   5.2734375e-01   5.1757812e-01   5.0781250e-01   4.9316406e-01   4.8339844e-01   4.6875000e-01   4.6386719e-01   4.5410156e-01   4.4433594e-01   4.3457031e-01   4.2480469e-01   4.1992188e-01   4.1015625e-01   4.0039062e-01   3.9550781e-01   3.8574219e-01   3.8085938e-01   3.7109375e-01   3.6621094e-01   3.5644531e-01   3.5156250e-01   3.5156250e-01   3.4667969e-01   3.4179688e-01   3.3691406e-01   3.3203125e-01   3.2226562e-01   3.2226562e-01   3.1738281e-01   3.1738281e-01   3.1738281e-01   3.1250000e-01   3.1738281e-01   3.2226562e-01   3.3691406e-01   3.5156250e-01   3.7109375e-01   4.0039062e-01   4.3457031e-01   4.6875000e-01   5.0292969e-01   5.4199219e-01   5.8105469e-01   6.2011719e-01   6.5917969e-01   6.9824219e-01   7.3730469e-01   7.6660156e-01   8.0078125e-01   8.2519531e-01   8.4960938e-01   8.6914062e-01   8.8378906e-01   8.9843750e-01   9.0332031e-01   9.0820312e-01   9.1308594e-01   9.0820312e-01   9.0820312e-01   9.0332031e-01   8.9355469e-01   8.8378906e-01   8.7402344e-01   8.6425781e-01   8.4960938e-01   8.3984375e-01   8.3007812e-01   8.1542969e-01   8.0078125e-01   7.8613281e-01   7.7148438e-01   7.6171875e-01   7.5195312e-01   7.3730469e-01   7.2265625e-01   7.1289062e-01   6.9824219e-01   6.8847656e-01   6.7871094e-01   6.6894531e-01   6.5429688e-01   6.4453125e-01   6.3476562e-01   6.2500000e-01   6.1523438e-01   6.0546875e-01   5.9570312e-01   5.8593750e-01   5.7617188e-01   5.6640625e-01   5.5664062e-01   5.4687500e-01   5.4199219e-01   5.3222656e-01   5.2734375e-01   5.1757812e-01   5.1757812e-01   5.0781250e-01   5.0292969e-01   4.9804688e-01   4.8828125e-01   4.8828125e-01   4.8339844e-01   4.7363281e-01   4.7363281e-01   4.6386719e-01   4.6386719e-01   4.6386719e-01   4.5410156e-01   4.5410156e-01   4.4921875e-01   4.4433594e-01   4.4433594e-01   4.3945312e-01   4.3457031e-01   4.3457031e-01   4.3457031e-01   4.2968750e-01   4.2968750e-01   4.2480469e-01   4.2480469e-01   4.1992188e-01   4.1992188e-01   4.1992188e-01   4.1503906e-01   4.1503906e-01   4.1992188e-01   4.1992188e-01   4.3457031e-01   4.4433594e-01   4.6875000e-01   4.8828125e-01   5.1757812e-01   5.5175781e-01   5.8593750e-01   6.2988281e-01   6.6894531e-01   7.0800781e-01   7.4707031e-01   7.8613281e-01   8.2031250e-01   8.5937500e-01   8.8867188e-01   9.1308594e-01   9.4238281e-01   9.6679688e-01   9.8144531e-01   1.0009766e+00   1.0156250e+00   1.0253906e+00   1.0302734e+00   1.0351562e+00   1.0351562e+00   1.0302734e+00   1.0205078e+00   1.0107422e+00   1.0009766e+00   9.9121094e-01   9.7656250e-01   9.6191406e-01   9.4726562e-01   9.3261719e-01   9.1308594e-01   9.0332031e-01   8.8867188e-01   8.6914062e-01   8.5449219e-01   8.3984375e-01   8.2031250e-01   8.0566406e-01   7.9101562e-01   7.7636719e-01   7.6171875e-01   7.4707031e-01   7.3242188e-01   7.1777344e-01   7.0312500e-01   6.8847656e-01   6.7382812e-01   6.5917969e-01   6.4453125e-01   6.3476562e-01   6.2011719e-01   6.0546875e-01   5.9570312e-01   5.8105469e-01   5.6640625e-01   5.5664062e-01   5.4199219e-01   5.3222656e-01   5.2246094e-01   5.1269531e-01   5.0292969e-01   4.9316406e-01   4.8828125e-01   4.7363281e-01   4.6875000e-01   4.5898438e-01   4.5410156e-01   4.4433594e-01   4.3945312e-01   4.2968750e-01   4.2480469e-01   4.1503906e-01   4.1015625e-01   4.0527344e-01   3.9550781e-01   3.9550781e-01   3.9062500e-01   3.8085938e-01   3.8085938e-01   3.8085938e-01   3.7597656e-01   3.7109375e-01   3.6621094e-01   3.6132812e-01   3.6132812e-01   3.5644531e-01   3.5156250e-01   3.4667969e-01   3.4667969e-01   3.5156250e-01   3.5156250e-01   3.6132812e-01   3.7109375e-01   3.8574219e-01   4.1015625e-01   4.3457031e-01   4.6875000e-01   5.0292969e-01   5.4199219e-01   5.7617188e-01   6.2011719e-01   6.6406250e-01   7.1289062e-01   7.4707031e-01   7.8613281e-01   8.2031250e-01   8.5449219e-01   8.8378906e-01   9.0820312e-01   9.3261719e-01   9.5214844e-01   9.7167969e-01   9.8144531e-01   9.9609375e-01   1.0009766e+00   1.0009766e+00   1.0009766e+00   9.9609375e-01   9.9121094e-01   9.8144531e-01   9.7167969e-01   9.5703125e-01   9.4238281e-01   9.2773438e-01   9.1308594e-01   8.9843750e-01   8.8378906e-01   8.6914062e-01   8.4960938e-01   8.3984375e-01   8.2519531e-01   8.1054688e-01   7.9589844e-01   7.8125000e-01   7.6171875e-01   7.5195312e-01   7.3242188e-01   7.1777344e-01   7.0312500e-01   6.8847656e-01   6.7871094e-01   6.6406250e-01   6.4941406e-01   6.3476562e-01   6.2011719e-01   6.1035156e-01   5.9570312e-01   5.8105469e-01   5.6640625e-01   5.5664062e-01   5.4687500e-01   5.3222656e-01   5.2246094e-01   5.1269531e-01   4.9804688e-01   4.9316406e-01   4.7851562e-01   4.7363281e-01   4.6386719e-01   4.5410156e-01   4.4921875e-01   4.3945312e-01   4.2968750e-01   4.2480469e-01   4.1992188e-01   4.1015625e-01   4.0039062e-01   4.0039062e-01   3.9062500e-01   3.8574219e-01   3.8574219e-01   3.7597656e-01   3.7597656e-01   3.6621094e-01   3.6621094e-01   3.6132812e-01   3.5644531e-01   3.5644531e-01   3.5156250e-01   3.5156250e-01   3.4667969e-01   3.4179688e-01   3.3691406e-01   3.3691406e-01   3.3691406e-01   3.3691406e-01   3.3691406e-01   3.4179688e-01   3.5644531e-01   3.7109375e-01   3.9062500e-01   4.1503906e-01   4.3945312e-01   4.6875000e-01   5.0781250e-01   5.4687500e-01   5.8105469e-01   6.1523438e-01   6.5429688e-01   6.8847656e-01   7.2265625e-01   7.4707031e-01   7.7636719e-01   8.0566406e-01   8.2519531e-01   8.4472656e-01   8.5937500e-01   8.6914062e-01   8.7890625e-01   8.8867188e-01   8.8867188e-01   8.8867188e-01   8.8378906e-01   8.7402344e-01   8.6914062e-01   8.5449219e-01   8.4472656e-01   8.3007812e-01   8.1542969e-01   8.0078125e-01   7.8613281e-01   7.6660156e-01   7.5195312e-01   7.4218750e-01   7.2753906e-01   7.1289062e-01   6.9824219e-01   6.8847656e-01   6.7871094e-01   6.6406250e-01   6.4941406e-01   6.3964844e-01   6.2988281e-01   6.1523438e-01   6.0058594e-01   5.9570312e-01   5.8593750e-01   5.7128906e-01   5.6152344e-01   5.5175781e-01   5.4199219e-01   5.3222656e-01   5.1757812e-01   5.1269531e-01   4.9804688e-01   4.9316406e-01   4.8828125e-01   4.7851562e-01   4.7363281e-01   4.6386719e-01   4.6386719e-01   4.5410156e-01   4.4921875e-01   4.4433594e-01   4.3945312e-01   