   4.9316406e-01   4.7363281e-01   4.5410156e-01   4.3945312e-01   4.2968750e-01   4.1992188e-01   4.1503906e-01   4.1503906e-01   4.1503906e-01   4.2480469e-01   4.3945312e-01   4.5410156e-01   4.6875000e-01   4.8828125e-01   5.0781250e-01   5.3222656e-01   5.4687500e-01   5.6640625e-01   5.8593750e-01   6.0546875e-01   6.2011719e-01   6.3964844e-01   6.4941406e-01   6.6894531e-01   6.7382812e-01   6.8359375e-01   6.9335938e-01   6.9335938e-01   6.9824219e-01   6.9824219e-01   6.9824219e-01   6.9824219e-01   6.9335938e-01   6.8847656e-01   6.8847656e-01   6.8359375e-01   6.7871094e-01   6.7382812e-01   6.6406250e-01   6.6406250e-01   6.5429688e-01   6.4941406e-01   6.4453125e-01   6.3964844e-01   6.2988281e-01   6.2500000e-01   6.1523438e-01   6.0546875e-01   6.0058594e-01   5.9570312e-01   5.8593750e-01   5.8105469e-01   5.7617188e-01   5.6640625e-01   5.6152344e-01   5.5175781e-01   5.3710938e-01   5.3222656e-01   5.2734375e-01   5.1757812e-01   5.1269531e-01   5.0292969e-01   4.9316406e-01   4.8828125e-01   4.7851562e-01   4.7363281e-01   4.6875000e-01   4.5898438e-01   4.4921875e-01   4.4433594e-01   4.3945312e-01   4.2968750e-01   4.2480469e-01   4.1992188e-01   4.1503906e-01   4.1015625e-01   4.1015625e-01   4.1015625e-01   4.1503906e-01   4.2480469e-01   4.3457031e-01   4.5410156e-01   4.6875000e-01   4.9316406e-01   5.1269531e-01   5.3710938e-01   5.5664062e-01   5.8105469e-01   6.0058594e-01   6.1523438e-01   6.3964844e-01   6.5429688e-01   6.6406250e-01   6.8359375e-01   6.9335938e-01   7.0312500e-01   7.1289062e-01   7.1289062e-01   7.1777344e-01   7.1777344e-01   7.1777344e-01   7.1777344e-01   7.1289062e-01   7.0800781e-01   7.0800781e-01   6.9824219e-01   6.9335938e-01   6.8847656e-01   6.8359375e-01   6.7871094e-01   6.6894531e-01   6.6406250e-01   6.5917969e-01   6.5429688e-01   6.4453125e-01   6.3476562e-01   6.2988281e-01   6.2011719e-01   6.1035156e-01   6.0546875e-01   5.9570312e-01   5.9082031e-01   5.8105469e-01   5.7128906e-01   5.6640625e-01   5.5175781e-01   5.4687500e-01   5.4199219e-01   5.3222656e-01   5.2246094e-01   5.1757812e-01   5.1269531e-01   4.9804688e-01   4.9316406e-01   4.8828125e-01   4.8339844e-01   4.7363281e-01   4.6875000e-01   4.6386719e-01   4.5898438e-01   4.4921875e-01   4.4433594e-01   4.3945312e-01   4.3945312e-01   4.2968750e-01   4.1992188e-01   4.1992188e-01   4.1992188e-01   4.1992188e-01   4.2480469e-01   4.3945312e-01   4.4921875e-01   4.6875000e-01   4.8339844e-01   5.0292969e-01   5.2734375e-01   5.4687500e-01   5.6640625e-01   5.8593750e-01   6.1035156e-01   6.2500000e-01   6.4453125e-01   6.5917969e-01   6.7382812e-01   6.8359375e-01   6.9335938e-01   7.0312500e-01   7.0312500e-01   7.0800781e-01   7.0800781e-01   7.1289062e-01   7.0800781e-01   7.0800781e-01   7.0312500e-01   6.9824219e-01   6.9335938e-01   6.8847656e-01   6.8359375e-01   6.7871094e-01   6.7382812e-01   6.6894531e-01   6.6406250e-01   6.5917969e-01   6.5429688e-01   6.4941406e-01   6.3964844e-01   6.3476562e-01   6.2988281e-01   6.2011719e-01   6.1523438e-01   6.1035156e-01   6.0058594e-01   5.9570312e-01   5.8593750e-01   5.8105469e-01   5.7128906e-01   5.6152344e-01   5.5664062e-01   5.5175781e-01   5.4199219e-01   5.3222656e-01   5.2734375e-01   5.2246094e-01   5.1269531e-01   5.0292969e-01   5.0292969e-01   4.9316406e-01   4.8828125e-01   4.8339844e-01   4.7851562e-01   4.7363281e-01   4.6875000e-01   4.5898438e-01   4.5410156e-01   4.4921875e-01   4.4433594e-01   4.4433594e-01   4.3945312e-01   4.4433594e-01   4.4921875e-01   4.5898438e-01   4.7363281e-01   4.9316406e-01   5.1269531e-01   5.3222656e-01   5.5175781e-01   5.7617188e-01   5.9082031e-01   6.1523438e-01   6.3964844e-01   6.5917969e-01   6.7871094e-01   6.9824219e-01   7.1289062e-01   7.2753906e-01   7.4218750e-01   7.5195312e-01   7.6171875e-01   7.6660156e-01   7.7148438e-01   7.7148438e-01   7.7636719e-01   7.7148438e-01   7.7148438e-01   7.6660156e-01   7.6171875e-01   7.5683594e-01   7.5683594e-01   7.5195312e-01   7.4707031e-01   7.4218750e-01   7.3730469e-01   7.3242188e-01   7.2265625e-01   7.1777344e-01   7.0800781e-01   7.0312500e-01   6.9335938e-01   6.8847656e-01   6.7871094e-01   6.6894531e-01   6.5917969e-01   6.4941406e-01   6.3964844e-01   6.2988281e-01   6.2011719e-01   6.1523438e-01   6.0058594e-01   5.9570312e-01   5.8593750e-01   5.7617188e-01   5.6640625e-01   5.6152344e-01   5.5175781e-01   5.4199219e-01   5.3710938e-01   5.2734375e-01   5.2246094e-01   5.1269531e-01   5.0781250e-01   4.9804688e-01   4.9316406e-01   4.8339844e-01   4.7851562e-01   4.7363281e-01   4.6875000e-01   4.6386719e-01   4.6386719e-01   4.5898438e-01   4.5898438e-01   4.6875000e-01   4.7363281e-01   4.8828125e-01   5.0781250e-01   5.2246094e-01   5.4199219e-01   5.6152344e-01   5.8105469e-01   6.0546875e-01   6.2988281e-01   6.4453125e-01   6.6406250e-01   6.8359375e-01   7.0312500e-01   7.1777344e-01   7.3242188e-01   7.4707031e-01   7.5195312e-01   7.6171875e-01   7.7148438e-01   7.7148438e-01   7.7636719e-01   7.7636719e-01   7.7148438e-01   7.7148438e-01   7.6660156e-01   7.6171875e-01   7.5683594e-01   7.5195312e-01   7.4707031e-01   7.3730469e-01   7.3242188e-01   7.2753906e-01   7.1777344e-01   7.0800781e-01   7.0312500e-01   6.9824219e-01   6.8847656e-01   6.7871094e-01   6.6894531e-01   6.6406250e-01   6.4941406e-01   6.4453125e-01   6.3476562e-01   6.2500000e-01   6.1523438e-01   6.0546875e-01   5.9570312e-01   5.9082031e-01   5.7617188e-01   5.6640625e-01   5.5664062e-01   5.4687500e-01   5.4199219e-01   5.3222656e-01   5.1757812e-01   5.1269531e-01   5.0292969e-01   4.9804688e-01   4.8828125e-01   4.7851562e-01   4.7363281e-01   4.6875000e-01   4.5898438e-01   4.4921875e-01   4.4433594e-01   4.3945312e-01   4.3457031e-01   4.2480469e-01   4.2480469e-01   4.2480469e-01   4.2480469e-01   4.3457031e-01   4.4433594e-01   4.5898438e-01   4.7851562e-01   4.9316406e-01   5.1757812e-01   5.3710938e-01   5.5664062e-01   5.8105469e-01   6.0058594e-01   6.2011719e-01   6.3964844e-01   6.5917969e-01   6.7382812e-01   6.8847656e-01   7.0312500e-01   7.1289062e-01   7.2265625e-01   7.2753906e-01   7.3242188e-01   7.3242188e-01   7.3242188e-01   7.3242188e-01   7.3242188e-01   7.2753906e-01   7.2265625e-01   7.1777344e-01   7.1777344e-01   7.1289062e-01   7.0312500e-01   7.0312500e-01   6.9335938e-01   6.8847656e-01   6.8359375e-01   6.7382812e-01   6.6894531e-01   6.5917969e-01   6.5429688e-01   6.4453125e-01   6.3476562e-01   6.2988281e-01   6.2011719e-01   6.1523438e-01   6.0546875e-01   5.9570312e-01   5.9082031e-01   5.8105469e-01   5.7128906e-01   5.6640625e-01   5.5664062e-01   5.5175781e-01   5.4199219e-01   5.3222656e-01   5.2734375e-01   5.1757812e-01   5.1269531e-01   5.0781250e-01   5.0292969e-01   4.9316406e-01   4.8828125e-01   4.8339844e-01   4.7851562e-01   4.7363281e-01   4.6875000e-01   4.6386719e-01   4.5410156e-01   4.5410156e-01   4.4921875e-01   4.5410156e-01   4.5898438e-01   4.6386719e-01   4.7363281e-01   4.8828125e-01   5.0781250e-01   5.2734375e-01   5.4687500e-01   5.6640625e-01   5.9082031e-01   6.1035156e-01   6.3476562e-01   6.5429688e-01   6.7382812e-01   6.9335938e-01   7.0800781e-01   7.2265625e-01   7.3242188e-01   7.4707031e-01   7.5195312e-01   7.6171875e-01   7.6660156e-01   7.6660156e-01   7.6660156e-01   7.6660156e-01   7.6171875e-01   7.5683594e-01   7.5683594e-01   7.5195312e-01   7.4707031e-01   7.4218750e-01   7.3730469e-01   7.3242188e-01   7.2265625e-01   7.1777344e-01   7.0800781e-01   7.0312500e-01   6.9824219e-01   6.8847656e-01   6.8359375e-01   6.7382812e-01   6.6406250e-01   6.5917969e-01   6.4941406e-01   6.4453125e-01   6.2988281e-01   6.2500000e-01   6.1523438e-01   6.0546875e-01   6.0058594e-01   5.9082031e-01   5.8105469e-01   5.7617188e-01   5.6640625e-01   5.6152344e-01   5.5175781e-01   5.4687500e-01   5.3710938e-01   5.3710938e-01   5.2734375e-01   5.1757812e-01   5.0781250e-01   5.0781250e-01   5.0292969e-01   4.9316406e-01   4.8828125e-01   4.8339844e-01   4.7363281e-01   4.7851562e-01   4.7363281e-01   4.7363281e-01   4.7851562e-01   4.8339844e-01   4.9804688e-01   5.0781250e-01   5.2246094e-01   5.4687500e-01   5.6640625e-01   5.8593750e-01   6.1035156e-01   6.3476562e-01   6.5429688e-01   6.7871094e-01   6.9824219e-01   7.1777344e-01   7.3730469e-01   7.5195312e-01   7.6660156e-01   7.8125000e-01   7.9101562e-01   8.0078125e-01   8.0566406e-01   8.1542969e-01   8.1542969e-01   8.1542969e-01   8.1542969e-01   8.1542969e-01   8.1054688e-01   8.0566406e-01   8.0078125e-01   7.9589844e-01   7.8613281e-01   7.8125000e-01   7.7636719e-01   7.6660156e-01   7.6171875e-01   7.5683594e-01   7.4707031e-01   7.4218750e-01   7.3242188e-01   7.2265625e-01   7.1289062e-01   7.0800781e-01   6.9335938e-01   6.8359375e-01   6.7382812e-01   6.6406250e-01   6.5429688e-01   6.4453125e-01   6.3964844e-01   6.2988281e-01   6.2011719e-01   6.1035156e-01   6.0058594e-01   5.9570312e-01   5.8593750e-01   5.7617188e-01   5.7128906e-01   5.6152344e-01   5.5175781e-01   5.4199219e-01   5.3710938e-01   5.3222656e-01   5.2246094e-01   5.1757812e-01   5.1269531e-01   5.0292969e-01   4.9804688e-01   4.9316406e-01   4.8828125e-01   4.8339844e-01   4.8339844e-01   4.8339844e-01   4.8828125e-01   4.9804688e-01   5.0781250e-01   5.2734375e-01   5.4199219e-01   5.6152344e-01   5.8593750e-01   6.1035156e-01   6.2988281e-01   6.4941406e-01   6.6894531e-01   6.9335938e-01   7.0800781e-01   7.2753906e-01   7.4218750e-01   7.5683594e-01   7.7148438e-01   7.8125000e-01   7.9101562e-01   7.9589844e-01   8.0078125e-01   8.0078125e-01   8.0078125e-01   8.0078125e-01   7.9589844e-01   7.9101562e-01   7.8613281e-01   7.8125000e-01   7.7636719e-01   7.7148438e-01   7.6171875e-01   7.5683594e-01   7.4707031e-01   7.4218750e-01   7.3242188e-01   7.2753906e-01   7.1777344e-01   7.0800781e-01   6.9824219e-01   6.9335938e-01   6.8359375e-01   6.7382812e-01   6.6406250e-01   6.5429688e-01   6.4453125e-01   6.3476562e-01   6.2500000e-01   6.1523438e-01   6.0546875e-01   5.9570312e-01   5.8593750e-01   5.7617188e-01   5.6640625e-01   5.5664062e-01   5.5175781e-01   5.3710938e-01   5.3222656e-01   5.2246094e-01   5.1757812e-01   5.0781250e-01   5.0292969e-01   4.9316406e-01   4.8339844e-01   4.7851562e-01   4.7363281e-01   4.6875000e-01   4.5898438e-01   4.5410156e-01   4.4921875e-01   4.4433594e-01   4.4433594e-01   4.4433594e-01   4.4921875e-01   4.5410156e-01   4.7363281e-01   4.8339844e-01   5.0292969e-01   5.2246094e-01   5.4199219e-01   5.6640625e-01   5.8593750e-01   6.0546875e-01   6.2988281e-01   6.4941406e-01   6.6894531e-01   6.8847656e-01   7.0312500e-01   7.1777344e-01   7.2753906e-01   7.3730469e-01   7.5195312e-01   7.5683594e-01   7.6171875e-01   7.6171875e-01   7.6171875e-01   7.5683594e-01   7.5683594e-01   7.5195312e-01   7.4707031e-01   7.4707031e-01   7.3730469e-01   7.3730469e-01   7.2753906e-01   7.2265625e-01   7.1777344e-01   7.0800781e-01   7.0312500e-01   6.9335938e-01   6.8359375e-01   6.7871094e-01   6.6894531e-01   6.6406250e-01   6.5429688e-01   6.3964844e-01   6.3476562e-01   6.2500000e-01   6.1523438e-01   6.0546875e-01   6.0058594e-01   5.9082031e-01   5.7617188e-01   5.7128906e-01   5.6152344e-01   5.5175781e-01   5.4687500e-01   5.3710938e-01   5.2734375e-01   5.1757812e-01   5.1269531e-01   5.0292969e-01   4.9804688e-01   4.8828125e-01   4.7851562e-01   4.7363281e-01   4.6875000e-01   4.6386719e-01   4.5898438e-01   4.4921875e-01   4.4921875e-01   4.4433594e-01   4.3945312e-01   4.3945312e-01   4.3457031e-01   4.3945312e-01   4.4921875e-01   4.5898438e-01   4.7363281e-01   4.9316406e-01   5.1269531e-01   5.3222656e-01   5.5175781e-01   5.7617188e-01   5.9570312e-01   6.1523438e-01   6.3476562e-01   6.5429688e-01   6.6894531e-01   6.8847656e-01   7.0312500e-01   7.1289062e-01   7.2265625e-01   7.2753906e-01   7.3242188e-01   7.3730469e-01   7.3730469e-01   7.3730469e-01   7.3242188e-01   7.3242188e-01   7.3242188e-01   7.2753906e-01   7.2265625e-01   7.1777344e-01   7.1777344e-01   7.1289062e-01   7.0800781e-01   7.0312500e-01   6.9824219e-01   6.8847656e-01   6.8847656e-01   6.7871094e-01   6.6894531e-01   6.6406250e-01   6.5429688e-01   6.4941406e-01   6.3964844e-01   6.3476562e-01   6.2988281e-01   6.2011719e-01   6.1035156e-01   6.0546875e-01   5.9570312e-01   5.8593750e-01   5.8105469e-01   5.7128906e-01   5.6640625e-01   5.6152344e-01   5.5175781e-01   5.4687500e-01   5.4199219e-01   5.3222656e-01   5.2734375e-01   5.2246094e-01   5.1269531e-01   5.0781250e-01   5.0292969e-01   4.9804688e-01   4.8828125e-01   4.8339844e-01   4.7851562e-01   4.7851562e-01   4.7363281e-01   4.6875000e-01   4.6875000e-01   4.7363281e-01   4.8339844e-01   4.8828125e-01   5.0781250e-01   5.1757812e-01   5.3710938e-01   5.6152344e-01   5.8105469e-01   6.0058594e-01   6.2988281e-01   6.4453125e-01   6.6894531e-01   6.8847656e-01   7.0800781e-01   7.2753906e-01   7.4218750e-01   7.5683594e-01   7.7148438e-01   7.8125000e-01   7.8613281e-01   7.9589844e-01   8.0078125e-01   8.0078125e-01   7.9589844e-01   7.9589844e-01   7.9589844e-01   7.9101562e-01   7.8613281e-01   7.8125000e-01   7.7636719e-01   7.7148438e-01   7.6660156e-01   7.5683594e-01   7.5195312e-01   7.4218750e-01   7.3730469e-01   7.2753906e-01   7.1777344e-01   7.1289062e-01   7.0312500e-01   6.9335938e-01   6.8847656e-01   6.7382812e-01   6.6894531e-01   6.5917969e-01   6.4941406e-01   6.3964844e-01   6.2988281e-01   6.1523438e-01   6.1035156e-01   5.9570312e-01   5.9082031e-01   5.8105469e-01   5.7128906e-01   5.6640625e-01   5.5664062e-01   5.5175781e-01   5.4687500e-01   5.3710938e-01   5.3222656e-01   5.2734375e-01   5.1757812e-01   5.0781250e-01   4.9804688e-01   4.9804688e-01   4.8828125e-01   4.8339844e-01   4.7851562e-01   4.7363281e-01   4.7363281e-01   4.7363281e-01   4.7363281e-01   4.7851562e-01   4.8828125e-01   4.9804688e-01   5.1757812e-01   5.3222656e-01   5.5664062e-01   5.7617188e-01   5.9082031e-01   6.1523438e-01   6.3964844e-01   6.5917969e-01   6.7871094e-01   6.9824219e-01   7.1289062e-01   7.3242188e-01   7.4707031e-01   7.5683594e-01   7.6660156e-01   7.7636719e-01   7.8613281e-01   7.8613281e-01   7.9101562e-01   7.9101562e-01   7.9101562e-01   7.8613281e-01   7.8125000e-01   7.7636719e-01   7.7148438e-01   7.6171875e-01   7.5683594e-01   7.4707031e-01   7.4218750e-01   7.3242188e-01   7.2753906e-01   7.2265625e-01   7.1289062e-01   7.0312500e-01   6.9335938e-01   6.8847656e-01   6.7871094e-01   6.6406250e-01   6.5917969e-01   6.4941406e-01   6.3964844e-01   6.2988281e-01   6.2011719e-01   6.1035156e-01   6.0058594e-01   5.9082031e-01   5.8105469e-01   5.7128906e-01   5.6640625e-01   5.5664062e-01   5.4687500e-01   5.4199219e-01   5.3222656e-01   5.2734375e-01   5.1757812e-01   5.1269531e-01   5.0292969e-01   4.9316406e-01   4.8828125e-01   4.8339844e-01   4.7851562e-01   4.7363281e-01   4.6875000e-01   4.5898438e-01   4.5410156e-01   4.4921875e-01   4.4433594e-01   4.4433594e-01   4.4921875e-01   4.4921875e-01   4.6386719e-01   4.7363281e-01   4.8828125e-01   5.0781250e-01   5.2734375e-01   5.4687500e-01   5.6640625e-01   5.8593750e-01   6.1035156e-01   6.2988281e-01   6.5429688e-01   6.6894531e-01   6.8847656e-01   7.0800781e-01   7.1777344e-01   7.3242188e-01   7.4218750e-01   7.5195312e-01   7.5683594e-01   7.6171875e-01   7.6660156e-01   7.6171875e-01   7.6171875e-01   7.6171875e-01   7.5683594e-01   7.4707031e-01   7.4707031e-01   7.3730469e-01   7.3242188e-01   7.3242188e-01   7.3242188e-01   7.2753906e-01   7.2753906e-01   7.1777344e-01   7.1289062e-01   7.0800781e-01   7.0312500e-01   6.9335938e-01   6.8359375e-01   6.7871094e-01   6.6894531e-01   6.5917969e-01   6.4941406e-01   6.3964844e-01   6.2988281e-01   6.2011719e-01   6.0546875e-01   5.9570312e-01   5.8593750e-01   5.7617188e-01   5.7128906e-01   5.6152344e-01   5.5175781e-01   5.4199219e-01   5.3222656e-01   5.2246094e-01   5.1757812e-01   5.0781250e-01   4.9804688e-01   4.9316406e-01   4.8339844e-01   4.7851562e-01   4.7363281e-01   4.6386719e-01   4.5898438e-01   4.4921875e-01   4.4433594e-01   4.3945312e-01   4.3457031e-01   4.3457031e-01   4.3457031e-01   4.3945312e-01   4.3700000e-01   4.4000000e-01   4.3989058e-01   4.3995767e-01   4.3567889e-01   4.3568564e-01   4.3436630e-01   4.4000000e-01   4.3945312e-01   4.2987564e-01   4.2987654e-01   4.2968750e-01   4.4433594e-01   4.6386719e-01   4.8339844e-01   5.0781250e-01   5.2246094e-01   5.3710938e-01   5.5664062e-01   5.7128906e-01   5.9082031e-01   6.0546875e-01   6.2011719e-01   6.3964844e-01   6.4941406e-01   6.6894531e-01   6.7871094e-01   6.8847656e-01   6.9335938e-01   6.9824219e-01   6.9824219e-01   6.9335938e-01   6.9824219e-01   6.9335938e-01   6.9335938e-01   6.9335938e-01   6.8847656e-01   6.8359375e-01   6.7871094e-01   6.7382812e-01   6.6894531e-01   6.6894531e-01   6.5917969e-01   6.5917969e-01   6.4941406e-01   6.4453125e-01   6.3964844e-01   6.3476562e-01   6.2988281e-01   6.1523438e-01   6.1035156e-01   6.0546875e-01   6.0058594e-01   5.9082031e-01   5.8593750e-01   5.7617188e-01   5.6640625e-01   5.6640625e-01   5.6152344e-01   5.5175781e-01   5.4199219e-01   5.3710938e-01   5.2734375e-01   5.2246094e-01   5.1269531e-01   5.0781250e-01   5.0292969e-01   4.9316406e-01   4.9316406e-01   4.8339844e-01   4.7851562e-01   4.7363281e-01   4.6386719e-01   4.5898438e-01   4.5898438e-01   4.4921875e-01   4.4921875e-01   4.4433594e-01   4.4433594e-01   4.4921875e-01   4.4433594e-01   4.5410156e-01   4.6875000e-01   4.8339844e-01   4.9804688e-01   5.2246094e-01   5.3222656e-01   5.5664062e-01   5.8105469e-01   5.9570312e-01   6.2988281e-01   6.4453125e-01   6.6894531e-01   6.8847656e-01   7.0312500e-01   7.1777344e-01   7.3242188e-01   7.4707031e-01   7.5683594e-01   7.6171875e-01   7.7148438e-01   7.7636719e-01   7.7636719e-01   7.7636719e-01   7.8125000e-01   7.7148438e-01   7.7148438e-01   7.6660156e-01   7.6171875e-01   7.5683594e-01   7.5195312e-01   7.4218750e-01   7.3242188e-01   7.2265625e-01   7.1777344e-01   7.0800781e-01   6.9824219e-01   6.8847656e-01   6.8359375e-01   6.7382812e-01   6.6406250e-01   6.5917969e-01   6.4941406e-01   6.3964844e-01   6.3964844e-01   6.2500000e-01   6.1523438e-01   6.0546875e-01   6.0058594e-01   5.9570312e-01   5.8105469e-01   5.7128906e-01   5.7128906e-01   5.5664062e-01   5.5175781e-01   5.4199219e-01   5.3222656e-01   5.2246094e-01   5.1269531e-01   5.0292969e-01   4.9804688e-01   4.9316406e-01   4.8339844e-01   4.8339844e-01   4.6875000e-01   4.6386719e-01   4.5898438e-01   4.4921875e-01   4.4433594e-01   4.4433594e-01   4.3945312e-01   4.4433594e-01   4.4433594e-01   4.5410156e-01   4.7363281e-01   4.8339844e-01   4.9804688e-01   5.2246094e-01   5.4199219e-01   5.6640625e-01   5.8593750e-01   6.0546875e-01   6.2988281e-01   6.4941406e-01   6.6406250e-01   6.8847656e-01   7.0312500e-01   7.1777344e-01   7.3730469e-01   7.4707031e-01   7.5683594e-01   7.6660156e-01   7.6660156e-01   7.7148438e-01   7.7636719e-01   7.7636719e-01   7.7148438e-01   7.6660156e-01   7.6171875e-01   7.6171875e-01   7.5195312e-01   7.4707031e-01   7.4218750e-01   7.3730469e-01   7.2753906e-01   7.2265625e-01   7.1289062e-01   7.0312500e-01   6.9824219e-01   6.8847656e-01   6.7871094e-01   6.6894531e-01   6.6406250e-01   6.4941406e-01   6.3964844e-01   6.2988281e-01   6.2500000e-01   6.1035156e-01   5.9570312e-01   5.9082031e-01   5.7617188e-01   5.7128906e-01   5.6152344e-01   5.4687500e-01   5.4199219e-01   5.3222656e-01   5.2246094e-01   5.1269531e-01   5.0292969e-01   4.9804688e-01   4.8828125e-01   4.7851562e-01   4.6875000e-01   4.5898438e-01   4.5410156e-01   4.4921875e-01   4.3945312e-01   4.2968750e-01   4.2480469e-01   4.1992188e-01   4.1015625e-01   4.1503906e-01   4.1015625e-01   4.0527344e-01   4.1503906e-01   4.1992188e-01   4.2968750e-01   4.4433594e-01   4.5898438e-01   4.8339844e-01   5.0781250e-01   5.2246094e-01   5.5175781e-01   5.6640625e-01   5.9082031e-01   6.0546875e-01   6.2500000e-01   6.4453125e-01   6.6406250e-01   6.7871094e-01   6.8847656e-01   6.9824219e-01   7.1289062e-01   7.1289062e-01   7.1777344e-01   7.2265625e-01   7.2753906e-01   7.2265625e-01   7.2265625e-01   7.1777344e-01   7.1777344e-01   7.0800781e-01   7.0312500e-01   6.9824219e-01   6.9824219e-01   6.8847656e-01   6.8359375e-01   6.8359375e-01   6.7382812e-01   6.6406250e-01   6.5917969e-01   6.4941406e-01   6.4453125e-01   6.3476562e-01   6.2500000e-01   6.1523438e-01   6.1035156e-01   6.0058594e-01   5.9570312e-01   5.8593750e-01   5.7128906e-01   5.7128906e-01   5.5664062e-01   5.4687500e-01   5.4199219e-01   5.3222656e-01   5.2734375e-01   5.1757812e-01   5.0781250e-01   5.0781250e-01   4.9316406e-01   4.8828125e-01   4.8828125e-01   4.7363281e-01   4.6875000e-01   4.6386719e-01   4.5898438e-01   4.5410156e-01   4.4433594e-01   4.3945312e-01   4.3457031e-01   4.2968750e-01   4.2480469e-01   4.2480469e-01   4.1992188e-01   4.1992188e-01   4.3457031e-01   4.3945312e-01   4.5410156e-01   4.6386719e-01   4.8339844e-01   5.0292969e-01   5.2246094e-01   5.4199219e-01   5.6152344e-01   5.8105469e-01   6.0546875e-01   6.2500000e-01   6.3964844e-01   6.5917969e-01   6.7382812e-01   6.8847656e-01   6.9824219e-01   7.0800781e-01   7.1289062e-01   7.1777344e-01   7.1777344e-01   7.2265625e-01   7.1777344e-01   7.1777344e-01   7.1777344e-01   7.1777344e-01   7.1289062e-01   7.0800781e-01   7.1289062e-01   7.0800781e-01   7.0800781e-01   7.0312500e-01   6.9335938e-01   6.9335938e-01   6.8359375e-01   6.7871094e-01   6.7382812e-01   6.6894531e-01   6.5917969e-01   6.5429688e-01   6.4453125e-01   6.4453125e-01   6.3476562e-01   6.2500000e-01   6.1523438e-01   6.0546875e-01   6.0058594e-01   5.9570312e-01   5.8593750e-01   5.7617188e-01   5.7617188e-01   5.6640625e-01   5.5664062e-01   5.5175781e-01   5.4199219e-01   5.4199219e-01   5.3222656e-01   5.1757812e-01   5.1757812e-01   5.0781250e-01   4.9804688e-01   4.9804688e-01   4.8828125e-01   4.8828125e-01   4.8339844e-01   4.7851562e-01   4.7851562e-01   4.7363281e-01   4.7851562e-01   4.8339844e-01   4.9316406e-01   5.0292969e-01   5.2246094e-01   5.3710938e-01   5.5664062e-01   5.7617188e-01   5.9570312e-01   6.1523438e-01   6.3964844e-01   6.5917969e-01   6.8359375e-01   7.0312500e-01   7.1777344e-01   7.3242188e-01   7.4218750e-01   7.5683594e-01   7.7148438e-01   7.8125000e-01   7.8613281e-01   7.9101562e-01   7.9101562e-01   7.9101562e-01   7.8613281e-01   7.8613281e-01   7.8125000e-01   7.7636719e-01   7.7148438e-01   7.7148438e-01   7.6171875e-01   7.5683594e-01   7.5195312e-01   7.4707031e-01   7.3242188e-01   7.3242188e-01   7.1777344e-01   7.1777344e-01   7.0800781e-01   6.9824219e-01   6.8359375e-01   6.7871094e-01   6.6894531e-01   6.6406250e-01   6.4941406e-01   6.4453125e-01   6.3476562e-01   6.2500000e-01   6.1523438e-01   6.0546875e-01   5.9570312e-01   5.8593750e-01   5.7617188e-01   5.6640625e-01   5.6640625e-01   5.5664062e-01   5.4687500e-01   5.5175781e-01   5.3710938e-01   5.2734375e-01   5.2734375e-01   5.1757812e-01   5.1269531e-01   5.0781250e-01   4.9316406e-01   4.9316406e-01   4.8828125e-01   4.8339844e-01   4.8339844e-01   4.7363281e-01   4.7851562e-01   4.7851562e-01   4.8339844e-01   4.9316406e-01   5.0292969e-01   5.1757812e-01   5.3710938e-01   5.5664062e-01   5.8105469e-01   6.0058594e-01   6.1523438e-01   6.3964844e-01   6.6406250e-01   6.8359375e-01   7.0312500e-01   7.2265625e-01   7.3730469e-01   7.5195312e-01   7.6171875e-01   7.7148438e-01   7.8125000e-01   7.8613281e-01   7.9101562e-01   7.9589844e-01   7.9589844e-01   7.9101562e-01   7.9101562e-01   7.8613281e-01   7.7636719e-01   7.6660156e-01   7.5683594e-01   7.5195312e-01   7.4218750e-01   7.3242188e-01   7.2265625e-01   7.1777344e-01   7.0800781e-01   6.9824219e-01   6.8847656e-01   6.8359375e-01   6.7382812e-01   6.6406250e-01   6.5917969e-01   6.4941406e-01   6.3964844e-01   6.2988281e-01   6.2011719e-01   6.1035156e-01   6.0546875e-01   5.9082031e-01   5.8105469e-01   5.7617188e-01   5.7128906e-01   5.6152344e-01   5.5175781e-01   5.4199219e-01   5.3710938e-01   5.3222656e-01   5.2246094e-01   5.1269531e-01   5.0781250e-01   4.9804688e-01   4.9316406e-01   4.8339844e-01   4.7851562e-01   4.7363281e-01   4.6875000e-01   4.6386719e-01   4.5410156e-01   4.4921875e-01   4.4433594e-01   4.4433594e-01   4.4921875e-01   4.4921875e-01   4.5898438e-01   4.6875000e-01   4.8828125e-01   5.0292969e-01   5.2246094e-01   5.3710938e-01   5.6152344e-01   5.8105469e-01   6.0546875e-01   6.2500000e-01   6.4453125e-01   6.6406250e-01   6.7871094e-01   6.9824219e-01   7.1289062e-01   7.2753906e-01   7.3242188e-01   7.4707031e-01   7.5683594e-01   7.6171875e-01   7.6171875e-01   7.6171875e-01   7.6171875e-01   7.5683594e-01   7.5195312e-01   7.5195312e-01   7.4218750e-01   7.3730469e-01   7.2753906e-01   7.2265625e-01   7.1777344e-01   7.0800781e-01   7.0312500e-01   6.9824219e-01   6.8847656e-01   6.7382812e-01   6.6894531e-01   6.5917969e-01   6.5429688e-01   6.4941406e-01   6.4453125e-01   6.3964844e-01   6.2988281e-01   6.2011719e-01   6.1035156e-01   6.0546875e-01   6.0058594e-01   5.8593750e-01   5.7617188e-01   5.7128906e-01   5.5664062e-01   5.5175781e-01   5.4199219e-01   5.3222656e-01   5.2734375e-01   5.1757812e-01   5.0781250e-01   5.0292969e-01   4.8828125e-01   4.8339844e-01   4.7851562e-01   4.6875000e-01   4.6875000e-01   4.5898438e-01   4.4921875e-01   4.4921875e-01   4.4433594e-01   4.3457031e-01   4.3457031e-01   4.2968750e-01   4.3457031e-01   4.3945312e-01   4.4921875e-01   4.6386719e-01   4.8339844e-01   4.9804688e-01   5.1269531e-01   5.3710938e-01   5.5664062e-01   5.7617188e-01   5.9570312e-01   6.1523438e-01   6.3964844e-01   6.4941406e-01   6.6894531e-01   6.8847656e-01   6.9824219e-01   7.1289062e-01   7.2265625e-01   7.3242188e-01   7.3730469e-01   7.3730469e-01   7.3730469e-01   7.3242188e-01   7.3242188e-01   7.2753906e-01   7.2753906e-01   7.1777344e-01   7.1289062e-01   7.1777344e-01   7.0800781e-01   6.9824219e-01   6.9824219e-01   6.8847656e-01   6.8847656e-01   6.7871094e-01   6.6894531e-01   6.5917969e-01   6.4941406e-01   6.3964844e-01   6.2988281e-01   6.2500000e-01   6.2011719e-01   6.2011719e-01   6.0546875e-01   5.9570312e-01   5.9082031e-01   5.8105469e-01   5.7128906e-01   5.6152344e-01   5.5664062e-01   5.5175781e-01   5.3710938e-01   5.3710938e-01   5.3222656e-01   5.1757812e-01   5.1269531e-01   5.0781250e-01   4.9804688e-01   4.9316406e-01   4.8828125e-01   4.8339844e-01   4.7851562e-01   4.6875000e-01   4.6875000e-01   4.6386719e-01   4.5898438e-01   4.4921875e-01   4.4921875e-01   4.4433594e-01   4.4433594e-01   4.4921875e-01   4.5410156e-01   4.6386719e-01   4.7851562e-01   4.9316406e-01   5.1757812e-01   5.3710938e-01   5.5175781e-01   5.7617188e-01   5.9570312e-01   6.2011719e-01   6.4453125e-01   6.6406250e-01   6.7871094e-01   6.9824219e-01   7.1289062e-01   7.3242188e-01   7.4218750e-01   7.5195312e-01   7.6171875e-01   7.6660156e-01   7.7148438e-01   7.7148438e-01   7.6660156e-01   7.6660156e-01   7.6660156e-01   7.5683594e-01   7.5683594e-01   7.5195312e-01   7.4707031e-01   7.4218750e-01   7.3242188e-01   7.2753906e-01   7.2265625e-01   7.1289062e-01   7.0312500e-01   6.9824219e-01   6.8847656e-01   6.8359375e-01   6.7382812e-01   6.6406250e-01   6.5917969e-01   6.4453125e-01   6.3476562e-01   6.2500000e-01   6.1523438e-01   6.1035156e-01   6.0546875e-01   5.9082031e-01   5.9082031e-01   5.7617188e-01   5.6640625e-01   5.6152344e-01   5.5175781e-01   5.4687500e-01   5.4199219e-01   5.3222656e-01   5.2734375e-01   5.2246094e-01   5.1269531e-01   5.0781250e-01   5.0292969e-01   4.9804688e-01   4.9316406e-01   4.8828125e-01   4.7851562e-01   4.7363281e-01   4.6386719e-01   4.5898438e-01   4.5410156e-01   4.5410156e-01   4.5410156e-01   4.6386719e-01   4.6875000e-01   4.8339844e-01   4.9804688e-01   5.1269531e-01   5.3222656e-01   5.5664062e-01   5.7617188e-01   5.9570312e-01   6.1523438e-01   6.3964844e-01   6.6406250e-01   6.8359375e-01   7.0312500e-01   7.2265625e-01   7.3730469e-01   7.5195312e-01   7.6660156e-01   7.7636719e-01   7.8613281e-01   7.9101562e-01   7.9589844e-01   7.9589844e-01   7.9589844e-01   7.9589844e-01   7.9589844e-01   7.8613281e-01   7.8613281e-01   7.8125000e-01   7.7636719e-01   7.7148438e-01   7.6171875e-01   7.5683594e-01   7.5195312e-01   7.4218750e-01   7.3242188e-01   7.2753906e-01   7.1777344e-01   7.0800781e-01   7.0312500e-01   6.8847656e-01   6.8359375e-01   6.6894531e-01   6.5917969e-01   6.5429688e-01   6.3964844e-01   6.3476562e-01   6.2988281e-01   6.1523438e-01   6.0546875e-01   6.0058594e-01   5.8593750e-01   5.7617188e-01   5.7617188e-01   5.6152344e-01   5.5664062e-01   5.5175781e-01   5.3710938e-01   5.3222656e-01   5.2734375e-01   5.1757812e-01   5.1269531e-01   5.0292969e-01   4.9316406e-01   4.9316406e-01   4.7851562e-01   4.7851562e-01   4.6875000e-01   4.6386719e-01   4.5898438e-01   4.5410156e-01   4.4921875e-01   4.5410156e-01   4.5898438e-01   4.6386719e-01   4.7363281e-01   4.8828125e-01   5.0781250e-01   5.2734375e-01   5.4687500e-01   5.6640625e-01   5.8593750e-01   6.1035156e-01   6.2988281e-01   6.5429688e-01   6.7382812e-01   6.9335938e-01   7.0800781e-01   7.1777344e-01   7.3730469e-01   7.4707031e-01   7.5683594e-01   7.6171875e-01   7.6660156e-01   7.7148438e-01   7.7636719e-01   7.7148438e-01   7.7148438e-01   7.6171875e-01   7.6171875e-01   7.5683594e-01   7.4707031e-01   7.4218750e-01   7.4218750e-01   7.3242188e-01   7.2265625e-01   7.2265625e-01   7.0800781e-01   7.0312500e-01   6.9335938e-01   6.8359375e-01   6.7871094e-01   6.6406250e-01   6.5917969e-01   6.4941406e-01   6.3476562e-01   6.2988281e-01   6.1523438e-01   6.0546875e-01   5.9570312e-01   5.8593750e-01   5.7617188e-01   5.7128906e-01   5.5664062e-01   5.4687500e-01   5.4199219e-01   5.3222656e-01   5.2246094e-01   5.1757812e-01   5.1269531e-01   5.0292969e-01   4.9316406e-01   4.8339844e-01   4.8339844e-01   4.7363281e-01   4.6386719e-01   4.6386719e-01   4.5410156e-01   4.4433594e-01   4.3945312e-01   4.3457031e-01   4.2968750e-01   4.2968750e-01   4.2480469e-01   4.1992188e-01   4.2968750e-01   4.3457031e-01   4.4921875e-01   4.5898438e-01   4.7363281e-01   4.9804688e-01   5.1757812e-01   5.3710938e-01   5.6152344e-01   5.8105469e-01   5.9570312e-01   6.1523438e-01   6.3476562e-01   6.4941406e-01   6.6894531e-01   6.7871094e-01   6.9335938e-01   7.0312500e-01   7.1289062e-01   7.1777344e-01   7.2265625e-01   7.2753906e-01   7.3242188e-01   7.3242188e-01   7.2753906e-01   7.2753906e-01   7.2753906e-01   7.2265625e-01   7.1777344e-01   7.1289062e-01   7.1289062e-01   7.0312500e-01   6.9824219e-01   6.9824219e-01   6.8847656e-01   6.8359375e-01   6.6894531e-01   6.6406250e-01   6.5917969e-01   6.4941406e-01   6.3964844e-01   6.2988281e-01   6.2011719e-01   6.1035156e-01   6.0546875e-01   5.9570312e-01   5.9082031e-01   5.8105469e-01   5.7128906e-01   5.6152344e-01   5.5175781e-01   5.4687500e-01   5.3710938e-01   5.2734375e-01   5.2246094e-01   5.1757812e-01   5.1269531e-01   5.0292969e-01   5.0292969e-01   4.9804688e-01   4.9316406e-01   4.9316406e-01   4.8339844e-01   4.8339844e-01   4.7851562e-01   4.6875000e-01   4.7363281e-01   4.6386719e-01   4.5898438e-01   4.5898438e-01   4.5410156e-01   4.5898438e-01   4.6386719e-01   4.6875000e-01   4.7851562e-01   4.9804688e-01   5.1269531e-01   5.3222656e-01   5.5175781e-01   5.6640625e-01   5.9082031e-01   6.1035156e-01   6.2988281e-01   6.4941406e-01   6.6894531e-01   6.8847656e-01   7.0800781e-01   7.1777344e-01   7.3242188e-01   7.4218750e-01   7.4707031e-01   7.5195312e-01   7.5195312e-01   7.5683594e-01   7.6171875e-01   7.5195312e-01   7.5195312e-01   7.4707031e-01   7.4707031e-01   7.4218750e-01   7.3730469e-01   7.3242188e-01   7.3242188e-01   7.2265625e-01   7.1777344e-01   7.0800781e-01   7.0312500e-01   6.9335938e-01   6.8847656e-01   6.7871094e-01   6.6894531e-01   6.6406250e-01   6.5429688e-01   6.4941406e-01   6.3476562e-01   6.2988281e-01   6.2011719e-01   6.1035156e-01   6.0058594e-01   5.9082031e-01   5.7617188e-01   5.7128906e-01   5.6640625e-01   5.6152344e-01   5.4687500e-01   5.4199219e-01   5.3222656e-01   5.2734375e-01   5.1757812e-01   5.1269531e-01   5.0781250e-01   4.9804688e-01   4.9316406e-01   4.8828125e-01   4.8339844e-01   4.7851562e-01   4.7363281e-01   4.6386719e-01   4.5410156e-01   4.4921875e-01   4.3945312e-01   4.3945312e-01   4.3457031e-01   4.3457031e-01   4.3945312e-01   4.4921875e-01   4.5898438e-01   4.7363281e-01   4.8828125e-01   5.1269531e-01   5.3222656e-01   5.5175781e-01   5.7128906e-01   5.9570312e-01   6.1035156e-01   6.3964844e-01   6.5429688e-01   6.7871094e-01   7.0312500e-01   7.1289062e-01   7.3242188e-01   7.4218750e-01   7.5195312e-01   7.6660156e-01   7.6660156e-01   7.7636719e-01   7.7148438e-01   7.7148438e-01   7.7148438e-01   7.7148438e-01   7.6660156e-01   7.6171875e-01   7.5683594e-01   7.4707031e-01   7.4218750e-01   7.3730469e-01   7.2753906e-01   7.1777344e-01   7.0800781e-01   6.9824219e-01   6.9335938e-01   6.8359375e-01   6.7871094e-01   6.6894531e-01   6.5917969e-01   6.5429688e-01   6.3964844e-01   6.3476562e-01   6.2011719e-01   6.1035156e-01   6.0546875e-01   5.9570312e-01   5.8105469e-01   5.7617188e-01   5.6640625e-01   5.5664062e-01   5.4687500e-01   5.3710938e-01   5.2734375e-01   5.2246094e-01   5.1757812e-01   5.0781250e-01   5.0292969e-01   4.9316406e-01   4.8828125e-01   4.8828125e-01   4.7851562e-01   4.6875000e-01   4.6875000e-01   4.5898438e-01   4.4921875e-01   4.4433594e-01   4.3945312e-01   4.3945312e-01   4.3457031e-01   4.3457031e-01   4.3457031e-01   4.3457031e-01   4.4921875e-01   4.6386719e-01   4.7363281e-01   4.9316406e-01   5.2246094e-01   5.3710938e-01   5.5664062e-01   5.7617188e-01   5.9570312e-01   6.2500000e-01   6.3964844e-01   6.5917969e-01   6.8359375e-01   6.9335938e-01   7.0800781e-01   7.2265625e-01   7.3242188e-01   7.4707031e-01   7.4707031e-01   7.5195312e-01   7.5683594e-01   7.5195312e-01   7.5195312e-01   7.5683594e-01   7.4707031e-01   7.4707031e-01   7.4707031e-01   7.3242188e-01   7.2753906e-01   7.2265625e-01   7.1289062e-01   7.0800781e-01   6.9824219e-01   6.8847656e-01   6.7382812e-01   6.6406250e-01   6.5917969e-01   6.4941406e-01   6.3964844e-01   6.3476562e-01   6.2988281e-01   6.1523438e-01   6.0546875e-01   5.9570312e-01   5.8593750e-01   5.7617188e-01   5.6640625e-01   5.6152344e-01   5.5664062e-01   5.4199219e-01   5.3710938e-01   5.2734375e-01   5.2246094e-01   5.0781250e-01   5.0781250e-01   4.9316406e-01   4.8828125e-01   4.8339844e-01   4.7363281e-01   4.6875000e-01   4.6386719e-01   4.5410156e-01   4.4921875e-01   4.3945312e-01   4.3457031e-01   4.3457031e-01   4.2480469e-01   4.2480469e-01   4.1503906e-01   4.1015625e-01   4.1503906e-01   4.1015625e-01   4.1992188e-01   4.2968750e-01   4.3945312e-01   4.5410156e-01   4.7851562e-01   4.9316406e-01   5.1757812e-01   5.4199219e-01   5.5664062e-01   5.8105469e-01   5.9570312e-01   6.1523438e-01   6.3964844e-01   6.5429688e-01   6.6406250e-01   6.8359375e-01   6.9335938e-01   7.0312500e-01   7.1289062e-01   7.1289062e-01   7.2265625e-01   7.1777344e-01   7.2265625e-01   7.1777344e-01   7.1289062e-01   7.1289062e-01   7.0800781e-01   7.0312500e-01   6.9824219e-01   6.9824219e-01   6.8359375e-01   6.7871094e-01   6.7382812e-01   6.6894531e-01   6.6406250e-01   6.5917969e-01   6.4941406e-01   6.3964844e-01   6.2988281e-01   6.2500000e-01   6.1523438e-01   6.0546875e-01   6.0058594e-01   5.9082031e-01   5.8105469e-01   5.7128906e-01   5.6152344e-01   5.5175781e-01   5.4199219e-01   5.3222656e-01   5.2734375e-01   5.2246094e-01   5.1269531e-01   5.0292969e-01   5.0292969e-01   4.8828125e-01   4.8339844e-01   4.8339844e-01   4.7363281e-01   4.7363281e-01   4.6386719e-01   4.5410156e-01   4.4921875e-01   4.3457031e-01   4.2968750e-01   4.3457031e-01   4.2480469e-01   4.2480469e-01   4.1992188e-01   4.1503906e-01   4.1992188e-01   4.2480469e-01   4.2480469e-01   4.3945312e-01   4.5898438e-01   4.7851562e-01   4.9804688e-01   5.1757812e-01   5.3710938e-01   5.6152344e-01   5.8105469e-01   6.0058594e-01   6.2011719e-01   6.3476562e-01   6.5429688e-01   6.7382812e-01   6.8359375e-01   6.9824219e-01   7.0800781e-01   7.1289062e-01   7.2265625e-01   7.2753906e-01   7.3242188e-01   7.3242188e-01   7.3242188e-01   7.3242188e-01   7.2753906e-01   7.2265625e-01   7.1777344e-01   7.1289062e-01   7.1289062e-01   7.0800781e-01   6.9824219e-01   6.9824219e-01   6.9335938e-01   6.8847656e-01   6.8359375e-01   6.7871094e-01   6.6894531e-01   6.6406250e-01   6.5917969e-01   6.4453125e-01   6.4453125e-01   6.2988281e-01   6.2011719e-01   6.1523438e-01   6.1035156e-01   6.0058594e-01   5.9570312e-01   5.8593750e-01   5.8105469e-01   5.7617188e-01   5.6640625e-01   5.6152344e-01   5.5175781e-01   5.4199219e-01   5.3710938e-01   5.2734375e-01   5.2246094e-01   5.2246094e-01   5.0781250e-01   5.0292969e-01   5.0292969e-01   4.9316406e-01   4.8828125e-01   4.8339844e-01   4.7363281e-01   4.7363281e-01   4.6386719e-01   4.5898438e-01   4.6386719e-01   4.5410156e-01   4.7851562e-01   4.9316406e-01   5.0292969e-01   5.2246094e-01   5.3710938e-01   5.5664062e-01   5.7617188e-01   6.0058594e-01   6.1523438e-01   6.3964844e-01   6.5917969e-01   6.7871094e-01   6.9335938e-01   7.1289062e-01   7.2753906e-01   7.4218750e-01   7.5195312e-01   7.6171875e-01   7.7148438e-01   7.7636719e-01   7.7636719e-01   7.8125000e-01   7.7636719e-01   7.8125000e-01   7.7148438e-01   7.7636719e-01   7.7148438e-01   7.6660156e-01   7.6171875e-01   7.5683594e-01   7.5195312e-01   7.4218750e-01   7.3730469e-01   7.3242188e-01   7.2265625e-01   7.1777344e-01   7.0800781e-01   7.0312500e-01   6.8847656e-01   6.7871094e-01   6.7871094e-01   6.6406250e-01   6.5429688e-01   6.4453125e-01   6.3476562e-01   6.2988281e-01   6.2011719e-01   6.0546875e-01   6.0058594e-01   5.8593750e-01   5.8105469e-01   5.7617188e-01   5.6152344e-01   5.5664062e-01   5.5175781e-01   5.4199219e-01   5.3710938e-01   5.2734375e-01   5.1757812e-01   5.0781250e-01   4.9804688e-01   4.9316406e-01   4.9316406e-01   4.8339844e-01   4.7363281e-01   4.7363281e-01   4.6875000e-01   4.6386719e-01   4.5410156e-01   4.5410156e-01   4.5898438e-01   4.6386719e-01   4.6875000e-01   4.8339844e-01   4.9804688e-01   5.1757812e-01   5.3710938e-01   5.5664062e-01   5.8105469e-01   6.0546875e-01   6.2011719e-01   6.4453125e-01   6.6406250e-01   6.8847656e-01   7.0800781e-01   7.2265625e-01   7.3730469e-01   7.5195312e-01   7.6171875e-01   7.6660156e-01   7.7636719e-01   7.8125000e-01   7.8613281e-01   7.8613281e-01   7.8125000e-01   7.8125000e-01   7.8125000e-01   7.7636719e-01   7.6660156e-01   7.6171875e-01   7.5683594e-01   7.5195312e-01   7.4707031e-01   7.3730469e-01   7.3242188e-01   7.2265625e-01   7.1289062e-01   7.0312500e-01   6.9335938e-01   6.8847656e-01   6.7871094e-01   6.6894531e-01   6.5917969e-01   6.4941406e-01   6.3964844e-01   6.3476562e-01   6.2011719e-01   6.1523438e-01   6.0546875e-01   5.9082031e-01   5.7617188e-01   5.6640625e-01   5.5664062e-01   5.5664062e-01   5.4199219e-01   5.3710938e-01   5.3710938e-01   5.2246094e-01   5.1757812e-01   5.1757812e-01   5.0781250e-01   4.9804688e-01   4.9804688e-01   4.8828125e-01   4.8828125e-01   4.7363281e-01   4.6875000e-01   4.6875000e-01   4.5410156e-01   4.5410156e-01   4.5410156e-01   4.4921875e-01   4.4921875e-01   4.5410156e-01   4.6386719e-01   4.7363281e-01   4.8828125e-01   5.1269531e-01   5.3222656e-01   5.4687500e-01   5.7128906e-01   5.9082031e-01   6.1035156e-01   6.2988281e-01   6.5429688e-01   6.7382812e-01   6.8847656e-01   7.0312500e-01   7.2265625e-01   7.3242188e-01   7.4707031e-01   7.5195312e-01   7.5683594e-01   7.6171875e-01   7.6660156e-01   7.6171875e-01   7.6171875e-01   7.6171875e-01   7.5683594e-01   7.4707031e-01   7.4707031e-01   7.3730469e-01   7.2753906e-01   7.2265625e-01   7.1777344e-01   7.0800781e-01   7.0312500e-01   6.9335938e-01   6.8847656e-01   6.8359375e-01   6.6894531e-01   6.6406250e-01   6.5429688e-01   6.4941406e-01   6.4453125e-01   6.3476562e-01   6.2011719e-01   6.1523438e-01   6.0058594e-01   5.9082031e-01   5.8105469e-01   5.7128906e-01   5.6640625e-01   5.5175781e-01   5.4687500e-01   5.4199219e-01   5.3222656e-01   5.1757812e-01   5.1269531e-01   5.0292969e-01   4.9804688e-01   4.9316406e-01   4.7851562e-01   4.7851562e-01   4.7851562e-01   4.6875000e-01   4.6386719e-01   4.5410156e-01   4.4921875e-01   4.4921875e-01   4.3945312e-01   4.3457031e-01   4.3945312e-01   4.3457031e-01   4.4433594e-01   4.4921875e-01   4.5898438e-01   4.7851562e-01   4.9316406e-01   5.1269531e-01   5.2734375e-01   5.4687500e-01   5.6640625e-01   5.9082031e-01   6.1035156e-01   6.3476562e-01   6.5429688e-01   6.7382812e-01   6.8847656e-01   7.0312500e-01   7.1777344e-01   7.2753906e-01   7.3730469e-01   7.4218750e-01   7.4707031e-01   7.4707031e-01   7.4218750e-01   7.4707031e-01   7.3730469e-01   7.3242188e-01   7.3242188e-01   7.2753906e-01   7.2265625e-01   7.1289062e-01   7.0800781e-01   7.0312500e-01   6.9824219e-01   6.9335938e-01   6.8359375e-01   6.7382812e-01   6.6894531e-01   6.6406250e-01   6.4941406e-01   6.4453125e-01   6.3964844e-01   6.2988281e-01   6.2500000e-01   6.1523438e-01   6.0546875e-01   6.0058594e-01   5.8593750e-01   5.7617188e-01   5.7617188e-01   5.6640625e-01   5.5664062e-01   5.4687500e-01   5.3710938e-01   5.3222656e-01   5.2246094e-01   5.1757812e-01   5.0781250e-01   5.0292969e-01   4.9316406e-01   4.8828125e-01   4.7851562e-01   4.7851562e-01   4.7363281e-01   4.6386719e-01   4.6386719e-01   4.6386719e-01   4.5898438e-01   4.5898438e-01   4.5898438e-01   4.5898438e-01   4.6386719e-01   4.7363281e-01   4.8339844e-01   5.0781250e-01   5.1757812e-01   5.4199219e-01   5.6152344e-01   5.8105469e-01   6.0546875e-01   6.2011719e-01   6.4453125e-01   6.6894531e-01   6.8847656e-01   7.0312500e-01   7.2265625e-01   7.3242188e-01   7.4707031e-01   7.6171875e-01   7.7148438e-01   7.7636719e-01   7.8125000e-01   7.8125000e-01   7.7636719e-01   7.7636719e-01   7.7636719e-01   7.7148438e-01   7.6660156e-01   7.6171875e-01   7.6171875e-01   7.4707031e-01   7.4707031e-01   7.3730469e-01   7.2753906e-01   7.2753906e-01   7.1289062e-01   7.0800781e-01   6.9335938e-01   6.8847656e-01   6.7871094e-01   6.6894531e-01   6.5917969e-01   6.5429688e-01   6.4941406e-01   6.3476562e-01   6.2500000e-01   6.2011719e-01   6.1035156e-01   6.0546875e-01   5.9570312e-01   5.8593750e-01   5.8105469e-01   5.7128906e-01   5.6152344e-01   5.6152344e-01   5.4687500e-01   5.4687500e-01   5.3222656e-01   5.2246094e-01   5.2246094e-01   5.1757812e-01   5.0781250e-01   5.0292969e-01   4.9316406e-01   4.8828125e-01   4.8339844e-01   4.7363281e-01   4.7363281e-01   4.7363281e-01   4.6386719e-01   4.6386719e-01   4.6875000e-01   4.7363281e-01   4.8339844e-01   4.9804688e-01   5.1757812e-01   5.3710938e-01   5.6152344e-01   5.7617188e-01   6.0546875e-01   6.2500000e-01   6.4941406e-01   6.6894531e-01   6.8847656e-01   7.0800781e-01   7.2753906e-01   7.4218750e-01   7.5683594e-01   7.7148438e-01   7.8125000e-01   7.9101562e-01   7.9101562e-01   7.9589844e-01   8.0078125e-01   8.0078125e-01   7.9589844e-01   7.9589844e-01   7.9101562e-01   7.8613281e-01   7.8125000e-01   7.7636719e-01   7.7148438e-01   7.6660156e-01   7.5683594e-01   7.5195312e-01   7.4218750e-01   7.3242188e-01   7.2753906e-01   7.1289062e-01   7.0800781e-01   7.0312500e-01   6.8847656e-01   6.8359375e-01   6.6894531e-01   6.6406250e-01   6.5429688e-01   6.3964844e-01   6.2988281e-01   6.2011719e-01   6.1035156e-01   6.0058594e-01   5.9082031e-01   5.7617188e-01   5.6640625e-01   5.5664062e-01   5.4687500e-01   5.4199219e-01   5.2734375e-01   5.2246094e-01   5.2246094e-01   5.0781250e-01   5.0292969e-01   4.9316406e-01   4.8339844e-01   4.8339844e-01   4.7363281e-01   4.7363281e-01   4.6386719e-01   4.5898438e-01   4.4921875e-01   4.4921875e-01   4.4921875e-01   4.4921875e-01   4.4921875e-01   4.5898438e-01   4.7363281e-01   4.9316406e-01   5.1269531e-01   5.3222656e-01   5.5664062e-01   5.7617188e-01   6.0058594e-01   6.2500000e-01   6.4453125e-01   6.6894531e-01   6.8359375e-01   7.0800781e-01   7.2265625e-01   7.3730469e-01   7.5683594e-01   7.7148438e-01   7.7636719e-01   7.8613281e-01   7.8613281e-01   7.8613281e-01   7.9101562e-01   7.8613281e-01   7.8613281e-01   7.8613281e-01   7.7636719e-01   7.7148438e-01   7.7148438e-01   7.5683594e-01   7.5195312e-01   7.4707031e-01   7.3242188e-01   7.3242188e-01   7.1777344e-01   7.0800781e-01   7.0312500e-01   6.8847656e-01   6.8359375e-01   6.7382812e-01   6.6406250e-01   6.5917969e-01   6.4941406e-01   6.3476562e-01   6.2500000e-01   6.1035156e-01   6.0058594e-01   5.9570312e-01   5.8105469e-01   5.6640625e-01   5.6640625e-01   5.5175781e-01   5.4199219e-01   5.3710938e-01   5.2246094e-01   5.1757812e-01   5.0781250e-01   4.9804688e-01   4.9316406e-01   4.7851562e-01   4.7851562e-01   4.6875000e-01   4.5898438e-01   4.4921875e-01   4.3945312e-01   4.3457031e-01   4.2480469e-01   4.1503906e-01   4.1015625e-01   4.1015625e-01   4.1015625e-01   4.1503906e-01   4.1992188e-01   4.3457031e-01   4.4433594e-01   4.6386719e-01   4.8339844e-01   5.0292969e-01   5.2734375e-01   5.4687500e-01   5.6640625e-01   5.9082031e-01   6.1035156e-01   6.2988281e-01   6.4941406e-01   6.6406250e-01   6.7871094e-01   6.9335938e-01   7.0800781e-01   7.1289062e-01   7.2265625e-01   7.2753906e-01   7.3242188e-01   7.2753906e-01   7.2753906e-01   7.2753906e-01   7.2265625e-01   7.2265625e-01   7.1777344e-01   7.1289062e-01   7.1289062e-01   7.0312500e-01   6.9335938e-01   6.9824219e-01   6.8359375e-01   6.8359375e-01   6.7871094e-01   6.6406250e-01   6.5917969e-01   6.5429688e-01   6.4941406e-01   6.3964844e-01   6.2988281e-01   6.2011719e-01   6.1035156e-01   6.0058594e-01   5.9570312e-01   5.8593750e-01   5.7617188e-01   5.7128906e-01   5.6640625e-01   5.5664062e-01   5.5175781e-01   5.4199219e-01   5.3222656e-01   5.3222656e-01   5.1757812e-01   5.1269531e-01   5.0781250e-01   4.9804688e-01   4.9316406e-01   4.8339844e-01   4.7851562e-01   4.7363281e-01   4.6875000e-01   4.5898438e-01   4.5410156e-01   4.4921875e-01   4.4433594e-01   4.4433594e-01   4.3945312e-01   4.3945312e-01   4.4921875e-01   4.5898438e-01   4.7363281e-01   4.8828125e-01   5.0292969e-01   5.2734375e-01   5.4199219e-01   5.6152344e-01   5.8593750e-01   6.0546875e-01   6.2988281e-01   6.4941406e-01   6.6406250e-01   6.8359375e-01   7.0312500e-01   7.1777344e-01   7.2753906e-01   7.3730469e-01   7.4218750e-01   7.5195312e-01   7.5683594e-01   7.5683594e-01   7.5683594e-01   7.5683594e-01   7.5195312e-01   7.5195312e-01   7.4218750e-01   7.3730469e-01   7.3730469e-01   7.2753906e-01   7.2753906e-01   7.1777344e-01   7.0800781e-01   7.0800781e-01   6.9335938e-01   6.8359375e-01   6.7871094e-01   6.6406250e-01   6.5917969e-01   6.4941406e-01   6.3964844e-01   6.2988281e-01   6.2011719e-01   6.1523438e-01   6.0546875e-01   5.9570312e-01   5.9082031e-01   5.8105469e-01   5.7128906e-01   5.6640625e-01   5.6152344e-01   5.5175781e-01   5.4199219e-01   5.3222656e-01   5.2246094e-01   5.1269531e-01   5.0781250e-01   4.9804688e-01   5.0292969e-01   4.9316406e-01   4.8339844e-01   4.8339844e-01   4.7363281e-01   4.7363281e-01   4.6875000e-01   4.6386719e-01   4.6386719e-01   4.5898438e-01   4.4921875e-01   4.4921875e-01   4.4921875e-01   4.5410156e-01   4.6875000e-01   4.7363281e-01   4.8828125e-01   5.0781250e-01   5.2734375e-01   5.4687500e-01   5.7128906e-01   5.9082031e-01   6.1523438e-01   6.3964844e-01   6.5917969e-01   6.8359375e-01   6.9824219e-01   7.1777344e-01   7.3730469e-01   7.4707031e-01   7.6171875e-01   7.7148438e-01   7.7636719e-01   7.8613281e-01   7.8613281e-01   7.8613281e-01   7.8613281e-01   7.8613281e-01   7.8125000e-01   7.8125000e-01   7.7148438e-01   7.6660156e-01   7.6171875e-01   7.5195312e-01   7.4707031e-01   7.4218750e-01   7.3242188e-01   7.3242188e-01   7.2753906e-01   7.1777344e-01   7.1289062e-01   7.0800781e-01   6.9824219e-01   6.9335938e-01   6.7871094e-01   6.7382812e-01   6.6406250e-01   6.5429688e-01   6.4453125e-01   6.2988281e-01   6.2011719e-01   6.1035156e-01   6.0058594e-01   5.9082031e-01   5.8593750e-01   5.7128906e-01   5.6640625e-01   5.5664062e-01   5.4687500e-01   5.4199219e-01   5.3222656e-01   5.2734375e-01   5.2246094e-01   5.1269531e-01   5.0292969e-01   4.9804688e-01   4.8828125e-01   4.8339844e-01   4.7851562e-01   4.6875000e-01   4.6875000e-01   4.6386719e-01   4.5410156e-01   4.5410156e-01   4.5410156e-01   4.6386719e-01   4.6875000e-01   4.7851562e-01   4.9316406e-01   5.1269531e-01   5.3222656e-01   5.5175781e-01   5.7617188e-01   5.9570312e-01   6.1523438e-01   6.3476562e-01   6.4941406e-01   6.6894531e-01   6.8847656e-01   7.0800781e-01   7.2265625e-01   7.3730469e-01   7.5195312e-01   7.6171875e-01   7.6660156e-01   7.7636719e-01   7.7636719e-01   7.7636719e-01   7.7636719e-01   7.7636719e-01   7.7148438e-01   7.7148438e-01   7.6660156e-01   7.6171875e-01   7.5683594e-01   7.4707031e-01   7.4707031e-01   7.3730469e-01   7.3242188e-01   7.2265625e-01   7.1289062e-01   7.0800781e-01   6.9824219e-01   6.8359375e-01   6.7382812e-01   6.6406250e-01   6.5429688e-01   6.4453125e-01   6.3476562e-01   6.2500000e-01   6.1523438e-01   6.0546875e-01   5.9570312e-01   5.8593750e-01   5.7617188e-01   5.7128906e-01   5.6152344e-01   5.5175781e-01   5.4687500e-01   5.4687500e-01   5.3710938e-01   5.2734375e-01   5.2734375e-01   5.1757812e-01   5.1269531e-01   5.0292969e-01   4.9316406e-01   4.9316406e-01   4.8339844e-01   4.7851562e-01   4.7363281e-01   4.6875000e-01   4.5898438e-01   4.5410156e-01   4.5410156e-01   4.5410156e-01   4.5898438e-01   4.6386719e-01   4.7363281e-01   4.8339844e-01   5.0292969e-01   5.2246094e-01   5.4199219e-01   5.6152344e-01   5.8593750e-01   6.0546875e-01   6.2988281e-01   6.5429688e-01   6.6894531e-01   6.8847656e-01   7.0312500e-01   7.1777344e-01   7.3242188e-01   7.4218750e-01   7.4707031e-01   7.5683594e-01   7.5683594e-01   7.6171875e-01   7.6171875e-01   7.5683594e-01   7.6171875e-01   7.5195312e-01   7.4218750e-01   7.3730469e-01   7.3242188e-01   7.2753906e-01   7.2753906e-01   7.1777344e-01   7.1289062e-01   7.0800781e-01   7.0312500e-01   6.9335938e-01   6.8847656e-01   6.7871094e-01   6.6894531e-01   6.5917969e-01   6.4941406e-01   6.3964844e-01   6.2988281e-01   6.2011719e-01   6.2011719e-01   6.0546875e-01   6.0058594e-01   5.9570312e-01   5.8105469e-01   5.7617188e-01   5.6640625e-01   5.5664062e-01   5.5175781e-01   5.4687500e-01   5.3222656e-01   5.3222656e-01   5.1757812e-01   5.1269531e-01   5.1269531e-01   5.0292969e-01   4.9804688e-01   4.9316406e-01   4.8339844e-01   4.7851562e-01   4.7851562e-01   4.6875000e-01   4.6875000e-01   4.5898438e-01   4.5410156e-01   4.4921875e-01   4.4921875e-01   4.4921875e-01   4.5410156e-01   4.6386719e-01   4.7851562e-01   4.9804688e-01   5.1269531e-01   5.3710938e-01   5.6152344e-01   5.7617188e-01   6.0058594e-01   6.2011719e-01   6.4453125e-01   6.7382812e-01   6.8847656e-01   7.0800781e-01   7.3242188e-01   7.4218750e-01   7.5683594e-01   7.6660156e-01   7.7636719e-01   7.9101562e-01   7.9101562e-01   7.9589844e-01   8.0078125e-01   7.9589844e-01   7.9589844e-01   7.9589844e-01   7.8613281e-01   7.8613281e-01   7.8125000e-01   7.7148438e-01   7.6660156e-01   7.6171875e-01   7.5195312e-01   7.4707031e-01   7.3730469e-01   7.3242188e-01   7.2753906e-01   7.1289062e-01   7.0800781e-01   7.0312500e-01   6.8847656e-01   6.7871094e-01   6.6894531e-01   6.5917969e-01   6.5429688e-01   6.4453125e-01   6.2988281e-01   6.2011719e-01   6.1035156e-01   6.0546875e-01   5.9570312e-01   5.8593750e-01   5.8105469e-01   5.7128906e-01   5.5664062e-01   5.4687500e-01   5.4687500e-01   5.3710938e-01   5.3222656e-01   5.2246094e-01   5.1269531e-01   5.1269531e-01   5.0292969e-01   4.9316406e-01   4.8828125e-01   4.8339844e-01   4.7851562e-01   4.6875000e-01   4.5898438e-01   4.5898438e-01   4.4921875e-01   4.4921875e-01   4.5898438e-01   4.6386719e-01   4.7363281e-01   4.8828125e-01   5.0292969e-01   5.2734375e-01   5.5175781e-01   5.7128906e-01   5.9570312e-01   6.2011719e-01   6.3964844e-01   6.6406250e-01   6.8359375e-01   7.0312500e-01   7.2753906e-01   7.3730469e-01   7.5195312e-01   7.6660156e-01   7.7636719e-01   7.9101562e-01   7.9589844e-01   7.9101562e-01   8.0078125e-01   7.9589844e-01   7.9101562e-01   7.9101562e-01   7.8613281e-01   7.8125000e-01   7.7636719e-01   7.6660156e-01   7.6171875e-01   7.5683594e-01   7.4707031e-01   7.3730469e-01   7.2753906e-01   7.2265625e-01   7.1777344e-01   7.0800781e-01   6.9824219e-01   6.9335938e-01   6.8359375e-01   6.7382812e-01   6.6406250e-01   6.5429688e-01   6.4453125e-01   6.3476562e-01   6.2011719e-01   6.1523438e-01   6.0546875e-01   5.9570312e-01   5.8593750e-01   5.7617188e-01   5.7128906e-01   5.5664062e-01   5.4687500e-01   5.4199219e-01   5.3710938e-01   5.2734375e-01   5.1757812e-01   5.1269531e-01   5.0292969e-01   4.9804688e-01   4.8828125e-01   4.7851562e-01   4.8339844e-01   4.6875000e-01   4.6386719e-01   4.6386719e-01   4.5410156e-01   4.4921875e-01   4.4921875e-01   4.3945312e-01   4.4433594e-01   4.4433594e-01   4.5410156e-01   4.7363281e-01   4.8339844e-01   5.0781250e-01   5.2734375e-01   5.4687500e-01   5.7128906e-01   5.9082031e-01   6.1523438e-01   6.3476562e-01   6.5429688e-01   6.7382812e-01   6.9335938e-01   7.0800781e-01   7.2265625e-01   7.4218750e-01   7.5195312e-01   7.5683594e-01   7.7148438e-01   7.7148438e-01   7.7636719e-01   7.7636719e-01   7.7148438e-01   7.6660156e-01   7.6660156e-01   7.6171875e-01   7.5683594e-01   7.5195312e-01   7.4707031e-01   7.3730469e-01   7.3242188e-01   7.2753906e-01   7.2265625e-01   7.1777344e-01   7.0800781e-01   6.9824219e-01   6.9335938e-01   6.8847656e-01   6.7871094e-01   6.6894531e-01   6.6406250e-01   6.4941406e-01   6.3964844e-01   6.3476562e-01   6.2011719e-01   6.1035156e-01   6.0546875e-01   5.9082031e-01   5.8593750e-01   5.7617188e-01   5.6640625e-01   5.5664062e-01   5.4687500e-01   5.4199219e-01   5.3222656e-01   5.2246094e-01   5.1269531e-01   5.1269531e-01   5.0292969e-01   4.9804688e-01   4.8828125e-01   4.7851562e-01   4.7851562e-01   4.6875000e-01   4.5898438e-01   4.6386719e-01   4.4921875e-01   4.4433594e-01   4.3457031e-01   4.2968750e-01   4.3457031e-01   4.3457031e-01   4.3945312e-01   4.4921875e-01   4.5898438e-01   4.7851562e-01   4.9804688e-01   5.1757812e-01   5.3710938e-01   5.5664062e-01   5.7617188e-01   5.9570312e-01   6.2011719e-01   6.3476562e-01   6.5917969e-01   6.7871094e-01   6.9335938e-01   7.0800781e-01   7.2265625e-01   7.3242188e-01   7.4218750e-01   7.4218750e-01   7.4707031e-01   7.4707031e-01   7.4218750e-01   7.4218750e-01   7.3730469e-01   7.3242188e-01   7.3242188e-01   7.2753906e-01   7.2265625e-01   7.1289062e-01   7.0800781e-01   7.0800781e-01   7.0312500e-01   6.9335938e-01   6.8359375e-01   6.8359375e-01   6.6894531e-01   6.5917969e-01   6.5429688e-01   6.4453125e-01   6.2988281e-01   6.2011719e-01   6.1035156e-01   6.1035156e-01   6.0058594e-01   5.8593750e-01   5.8105469e-01   5.7128906e-01   5.6152344e-01   5.5175781e-01   5.4199219e-01   5.3222656e-01   5.2734375e-01   5.1269531e-01   5.0781250e-01   4.9804688e-01   4.9804688e-01   4.9804688e-01   4.8828125e-01   4.8339844e-01   4.7851562e-01   4.7363281e-01   4.6875000e-01   4.6386719e-01   4.5898438e-01   4.6386719e-01   4.5410156e-01   4.4921875e-01   4.4921875e-01   4.4433594e-01   4.4433594e-01   4.4921875e-01   4.4921875e-01   4.6875000e-01   4.8339844e-01   4.9804688e-01   5.2246094e-01   5.4199219e-01   5.6640625e-01   5.9082031e-01   6.0546875e-01   6.3476562e-01   6.5429688e-01   6.6894531e-01   6.9335938e-01   7.1289062e-01   7.2753906e-01   7.3730469e-01   7.5195312e-01   7.5683594e-01   7.6171875e-01   7.6660156e-01   7.6660156e-01   7.6660156e-01   7.6171875e-01   7.5683594e-01   7.5195312e-01   7.5195312e-01   7.4707031e-01   7.3730469e-01   7.3242188e-01   7.3242188e-01   7.2265625e-01   7.2265625e-01   7.1289062e-01   7.0800781e-01   6.9824219e-01   6.9824219e-01   6.8847656e-01   6.7871094e-01   6.7382812e-01   6.6406250e-01   6.4941406e-01   6.3964844e-01   6.2988281e-01   6.2988281e-01   6.1523438e-01   6.0546875e-01   6.0058594e-01   5.8593750e-01   5.7617188e-01   5.6640625e-01   5.6152344e-01   5.5664062e-01   5.4687500e-01   5.3222656e-01   5.3222656e-01   5.2246094e-01   5.1757812e-01   5.1269531e-01   5.0292969e-01   4.9804688e-01   4.9316406e-01   4.8339844e-01   4.7851562e-01   4.7363281e-01   4.6875000e-01   4.6386719e-01   4.5898438e-01   4.4921875e-01   4.4921875e-01   4.4433594e-01   4.4433594e-01   4.5410156e-01   4.5898438e-01   4.7851562e-01   4.9316406e-01   5.0781250e-01   5.2734375e-01   5.4687500e-01   5.7128906e-01   5.9082031e-01   6.1035156e-01   6.3476562e-01   6.5917969e-01   6.7871094e-01   7.0312500e-01   7.2265625e-01   7.3730469e-01   7.5195312e-01   7.6660156e-01   7.8125000e-01   7.9101562e-01   8.0078125e-01   8.0078125e-01   8.0566406e-01   8.0078125e-01   8.0078125e-01   8.0078125e-01   7.9101562e-01   7.8613281e-01   7.8125000e-01   7.7148438e-01   7.6660156e-01   7.5683594e-01   7.4707031e-01   7.4218750e-01   7.3242188e-01   7.2753906e-01   7.1777344e-01   7.0312500e-01   6.9335938e-01   6.8847656e-01   6.7382812e-01   6.6406250e-01   6.5429688e-01   6.3964844e-01   6.3476562e-01   6.2500000e-01   6.1035156e-01   6.0546875e-01   5.9082031e-01   5.8105469e-01   5.7617188e-01   5.6152344e-01   5.4687500e-01   5.4199219e-01   5.3222656e-01   5.2246094e-01   5.1269531e-01   5.0292969e-01   4.9804688e-01   4.8828125e-01   4.8339844e-01   4.8339844e-01   4.6875000e-01   4.6386719e-01   4.6386719e-01   4.5410156e-01   4.4921875e-01   4.3945312e-01   4.3457031e-01   4.2968750e-01   4.2480469e-01   4.2480469e-01   4.3457031e-01   4.2968750e-01   4.3945312e-01   4.5898438e-01   4.6875000e-01   4.9316406e-01   5.1269531e-01   5.3222656e-01   5.6152344e-01   5.8105469e-01   6.0546875e-01   6.2988281e-01   6.4941406e-01   6.7382812e-01   6.9335938e-01   7.1289062e-01   7.2753906e-01   7.3730469e-01   7.5195312e-01   7.6171875e-01   7.6660156e-01   7.7148438e-01   7.7636719e-01   7.7636719e-01   7.7148438e-01   7.6660156e-01   7.6660156e-01   7.5683594e-01   7.5195312e-01   7.4707031e-01   7.3730469e-01   7.3242188e-01   7.2265625e-01   7.1777344e-01   7.0800781e-01   6.9824219e-01   6.8847656e-01   6.7871094e-01   6.6894531e-01   6.6406250e-01   6.5429688e-01   6.3964844e-01   6.3964844e-01   6.2500000e-01   6.1523438e-01   6.1035156e-01   5.9570312e-01   5.8593750e-01   5.8105469e-01   5.6152344e-01   5.5664062e-01   5.4687500e-01   5.3222656e-01   5.2734375e-01   5.1269531e-01   5.0781250e-01   4.9804688e-01   4.8828125e-01   4.7851562e-01   4.7363281e-01   4.6386719e-01   4.5898438e-01   4.5410156e-01   4.3945312e-01   4.3945312e-01   4.2968750e-01   4.1992188e-01   4.1503906e-01   4.0527344e-01   4.0039062e-01   3.9550781e-01   3.9062500e-01   3.9550781e-01   3.9062500e-01   3.9550781e-01   4.0527344e-01   4.1992188e-01   4.3945312e-01   4.5898438e-01   4.8339844e-01   5.0781250e-01   5.3222656e-01   5.5175781e-01   5.7617188e-01   6.0058594e-01   6.2011719e-01   6.3964844e-01   6.6406250e-01   6.7871094e-01   6.9824219e-01   7.0800781e-01   7.1777344e-01   7.3242188e-01   7.3730469e-01   7.3730469e-01   7.4218750e-01   7.4218750e-01   7.4218750e-01   7.3242188e-01   7.3242188e-01   7.2753906e-01   7.2265625e-01   7.2265625e-01   7.1777344e-01   7.0800781e-01   7.0800781e-01   7.0312500e-01   6.8847656e-01   6.8359375e-01   6.7382812e-01   6.6406250e-01   6.4941406e-01   6.3964844e-01   6.2988281e-01   6.1523438e-01   6.0546875e-01   5.9570312e-01   5.8593750e-01   5.7617188e-01   5.6640625e-01   5.6152344e-01   5.4687500e-01   5.3710938e-01   5.2734375e-01   5.1757812e-01   5.1269531e-01   5.0781250e-01   4.9316406e-01   4.8828125e-01   4.7851562e-01   4.6875000e-01   4.6386719e-01   4.5410156e-01   4.4921875e-01   4.3945312e-01   4.2968750e-01   4.2480469e-01   4.1503906e-01   4.0527344e-01   4.0527344e-01   3.9550781e-01   3.9062500e-01   3.9062500e-01   3.8085938e-01   3.7597656e-01   3.8085938e-01   3.8574219e-01   3.9550781e-01   4.1015625e-01   4.2968750e-01   4.4921875e-01   4.7363281e-01   4.9316406e-01   5.2246094e-01   5.4199219e-01   5.6152344e-01   5.9570312e-01   6.1035156e-01   6.2988281e-01   6.5429688e-01   6.6894531e-01   6.8847656e-01   6.9824219e-01   7.0800781e-01   7.2265625e-01   7.2265625e-01   7.2265625e-01   7.3242188e-01   7.2753906e-01   7.2753906e-01   7.2265625e-01   7.1777344e-01   7.1777344e-01   7.1289062e-01   7.0800781e-01   6.9824219e-01   6.9335938e-01   6.8847656e-01   6.8359375e-01   6.7382812e-01   6.6894531e-01   6.6894531e-01   6.5429688e-01   6.4453125e-01   6.4453125e-01   6.3476562e-01   6.2988281e-01   6.1523438e-01   6.0546875e-01   6.0058594e-01   5.9082031e-01   5.7617188e-01   5.7617188e-01   5.6152344e-01   5.6152344e-01   5.4687500e-01   5.3710938e-01   5.2734375e-01   5.1757812e-01   5.0781250e-01   5.0292969e-01   4.9316406e-01   4.8828125e-01   4.7851562e-01   4.7363281e-01   4.6875000e-01   4.5898438e-01   4.5898438e-01   4.4921875e-01   4.4433594e-01   4.3945312e-01   4.3457031e-01   4.2968750e-01   4.2480469e-01   4.1992188e-01   4.2480469e-01   4.2968750e-01   4.3457031e-01   4.4921875e-01   4.6386719e-01   4.8828125e-01   5.0781250e-01   5.3222656e-01   5.5664062e-01   5.8105469e-01   6.0546875e-01   6.2988281e-01   6.5429688e-01   6.7871094e-01   6.9824219e-01   7.1777344e-01   7.3730469e-01   7.5195312e-01   7.6660156e-01   7.7148438e-01   7.8125000e-01   7.8613281e-01   7.9101562e-01   7.9101562e-01   7.9589844e-01   7.9589844e-01   7.9101562e-01   7.8613281e-01   7.8125000e-01   7.7636719e-01   7.7148438e-01   7.6660156e-01   7.6171875e-01   7.5195312e-01   7.4218750e-01   7.3730469e-01   7.2753906e-01   7.1777344e-01   7.1289062e-01   7.0312500e-01   6.9335938e-01   6.9335938e-01   6.7871094e-01   6.7382812e-01   6.6406250e-01   6.4941406e-01   6.4453125e-01   6.3476562e-01   6.2011719e-01   6.2011719e-01   6.0546875e-01   5.9570312e-01   5.8105469e-01   5.7617188e-01   5.7128906e-01   5.5664062e-01   5.5175781e-01   5.4687500e-01   5.3710938e-01   5.2734375e-01   5.2246094e-01   5.1269531e-01   5.0781250e-01   4.9804688e-01   4.8828125e-01   4.8339844e-01   4.7851562e-01   4.7363281e-01   4.6386719e-01   4.6386719e-01   4.5898438e-01   4.6386719e-01   4.6875000e-01   4.7363281e-01   4.8828125e-01   4.9804688e-01   5.1757812e-01   5.3710938e-01   5.5664062e-01   5.8105469e-01   6.0546875e-01   6.2988281e-01   6.4941406e-01   6.6894531e-01   6.9335938e-01   7.1289062e-01   7.2753906e-01   7.4707031e-01   7.6171875e-01   7.7148438e-01   7.8125000e-01   7.9101562e-01   7.9589844e-01   8.0078125e-01   8.0566406e-01   8.0078125e-01   8.0078125e-01   7.9589844e-01   7.8613281e-01   7.8613281e-01   7.7636719e-01   7.6660156e-01   7.6660156e-01   7.5195312e-01   7.4218750e-01   7.3730469e-01   7.2753906e-01   7.2265625e-01   7.1289062e-01   7.0312500e-01   6.8847656e-01   6.7871094e-01   6.6406250e-01   6.5429688e-01   6.3964844e-01   6.3476562e-01   6.2988281e-01   6.1523438e-01   6.0546875e-01   5.9570312e-01   5.8105469e-01   5.7128906e-01   5.6152344e-01   5.4687500e-01   5.4199219e-01   5.3222656e-01   5.2246094e-01   5.1269531e-01   5.0292969e-01   4.9316406e-01   4.8339844e-01   4.7851562e-01   4.7363281e-01   4.6875000e-01   4.6386719e-01   4.5410156e-01   4.4921875e-01   4.4433594e-01   4.4433594e-01   4.2968750e-01   4.2480469e-01   4.2480469e-01   4.1992188e-01   4.2480469e-01   4.2968750e-01   4.3457031e-01   4.5410156e-01   4.7363281e-01   4.8828125e-01   5.1757812e-01   5.3222656e-01   5.5664062e-01   5.8105469e-01   6.0058594e-01   6.2500000e-01   6.3964844e-01   6.5917969e-01   6.8359375e-01   7.0312500e-01   7.1289062e-01   7.2753906e-01   7.3730469e-01   7.4707031e-01   7.5195312e-01   7.5683594e-01   7.5195312e-01   7.5195312e-01   7.4707031e-01   7.4707031e-01   7.4707031e-01   7.3730469e-01   7.3730469e-01   7.3242188e-01   7.2265625e-01   7.1777344e-01   7.0800781e-01   6.9824219e-01   6.9335938e-01   6.8359375e-01   6.7871094e-01   6.6894531e-01   6.5917969e-01   6.4941406e-01   6.3964844e-01   6.2988281e-01   6.2011719e-01   6.1035156e-01   6.0546875e-01   5.9570312e-01   5.8105469e-01   5.7128906e-01   5.6640625e-01   5.5664062e-01   5.4687500e-01   5.3710938e-01   5.2734375e-01   5.2246094e-01   5.1269531e-01   4.9804688e-01   4.9316406e-01   4.8339844e-01   4.7851562e-01   4.7363281e-01   4.6386719e-01   4.5898438e-01   4.5410156e-01   4.3945312e-01   4.3945312e-01   4.3457031e-01   4.2480469e-01   4.2480469e-01   4.1503906e-01   4.0527344e-01   4.0527344e-01   4.1015625e-01   4.1503906e-01   4.2968750e-01   4.4433594e-01   4.6386719e-01   4.8339844e-01   5.0781250e-01   5.2734375e-01   5.5175781e-01   5.7128906e-01   5.9570312e-01   6.1523438e-01   6.3476562e-01   6.5429688e-01   6.6894531e-01   6.9335938e-01   7.0312500e-01   7.1289062e-01   7.1777344e-01   7.3242188e-01   7.3242188e-01   7.3730469e-01   7.3242188e-01   7.2753906e-01   7.3242188e-01   7.2265625e-01   7.1777344e-01   7.2265625e-01   7.1289062e-01   7.0800781e-01   7.0800781e-01   6.9824219e-01   6.9335938e-01   6.8359375e-01   6.7382812e-01   6.7382812e-01   6.5917969e-01   6.4941406e-01   6.4453125e-01   6.3476562e-01   6.2500000e-01   6.1035156e-01   6.0546875e-01   5.9570312e-01   5.8593750e-01   5.8105469e-01   5.7128906e-01   5.6152344e-01   5.5664062e-01   5.5175781e-01   5.3710938e-01   5.3222656e-01   5.2246094e-01   5.1757812e-01   5.0781250e-01   5.0781250e-01   4.9804688e-01   4.9316406e-01   4.8339844e-01   4.7851562e-01   4.7363281e-01   4.6875000e-01   4.6386719e-01   4.5898438e-01   4.5410156e-01   4.4921875e-01   4.4921875e-01   4.4433594e-01   4.3945312e-01   4.4433594e-01   4.4921875e-01   4.5898438e-01   4.7851562e-01   4.9804688e-01   5.2246094e-01   5.4199219e-01   5.5664062e-01   5.8105469e-01   6.0546875e-01   6.2988281e-01   6.5429688e-01   6.6894531e-01   6.9335938e-01   7.0800781e-01   7.2265625e-01   7.4218750e-01   7.4707031e-01   7.6171875e-01   7.7148438e-01   7.7636719e-01   7.7148438e-01   7.7636719e-01   7.7148438e-01   7.6660156e-01   7.6171875e-01   7.6171875e-01   7.5683594e-01   7.4707031e-01   7.4218750e-01   7.3730469e-01   7.2753906e-01   7.2753906e-01   7.1777344e-01   7.0800781e-01   7.0312500e-01   6.9335938e-01   6.8847656e-01   6.7871094e-01   6.6894531e-01   6.5917969e-01   6.4941406e-01   6.3964844e-01   6.2988281e-01   6.2500000e-01   6.1523438e-01   6.0546875e-01   5.9570312e-01   5.8593750e-01   5.7617188e-01   5.7128906e-01   5.6152344e-01   5.5664062e-01   5.4199219e-01   5.3710938e-01   5.3222656e-01   5.1757812e-01   5.1269531e-01   5.0292969e-01   4.9316406e-01   4.8828125e-01   4.8339844e-01   4.7363281e-01   4.7363281e-01   4.6386719e-01   4.5410156e-01   4.5410156e-01   4.4921875e-01   4.4433594e-01   4.4921875e-01   4.4433594e-01   4.5898438e-01   4.7363281e-01   4.8828125e-01   5.0292969e-01   5.2246094e-01   5.4199219e-01   5.6640625e-01   5.9082031e-01   6.1523438e-01   6.3476562e-01   6.5917969e-01   6.7871094e-01   6.9824219e-01   7.1777344e-01   7.3242188e-01   7.4707031e-01   7.6171875e-01   7.7148438e-01   7.8125000e-01   7.8613281e-01   7.9589844e-01   7.9589844e-01   7.9589844e-01   7.9589844e-01   7.9101562e-01   7.9101562e-01   7.8613281e-01   7.8125000e-01   7.7636719e-01   7.6660156e-01   7.6171875e-01   7.5195312e-01   7.4218750e-01   7.3730469e-01   7.2753906e-01   7.1777344e-01   7.0800781e-01   6.9824219e-01   6.8359375e-01   6.7382812e-01   6.6406250e-01   6.4941406e-01   6.3964844e-01   6.2988281e-01   6.1523438e-01   6.0546875e-01   5.9570312e-01   5.8593750e-01   5.7617188e-01   5.6640625e-01   5.5175781e-01   5.5175781e-01   5.3710938e-01   5.3222656e-01   5.2734375e-01   5.1269531e-01   5.0292969e-01   4.9804688e-01   4.8339844e-01   4.8339844e-01   4.7851562e-01   4.6875000e-01   4.5898438e-01   4.5410156e-01   4.4921875e-01   4.3945312e-01   4.3457031e-01   4.2968750e-01   4.2968750e-01   4.3457031e-01   4.4433594e-01   4.6386719e-01   4.7851562e-01   4.9804688e-01   5.2246094e-01   5.3710938e-01   5.6640625e-01   5.8593750e-01   6.1035156e-01   6.3476562e-01   6.5429688e-01   6.7382812e-01   6.9335938e-01   7.0800781e-01   7.2753906e-01   7.4218750e-01   7.5195312e-01   7.6660156e-01   7.7148438e-01   7.8125000e-01   7.8125000e-01   7.8125000e-01   7.8613281e-01   7.7636719e-01   7.7148438e-01   7.7148438e-01   7.5683594e-01   7.5683594e-01   7.5195312e-01   7.3730469e-01   7.3242188e-01   7.2753906e-01   7.1289062e-01   7.0312500e-01   6.9824219e-01   6.8847656e-01   6.7871094e-01   6.6894531e-01   6.5429688e-01   6.4941406e-01   6.3476562e-01   6.2988281e-01   6.2011719e-01   6.0546875e-01   5.9570312e-01   5.8593750e-01   5.7617188e-01   5.6640625e-01   5.5175781e-01   5.4199219e-01   5.3222656e-01   5.2246094e-01   5.1757812e-01   5.0781250e-01   4.9316406e-01   4.8828125e-01   4.8339844e-01   4.7363281e-01   4.5898438e-01   4.5410156e-01   4.4433594e-01   4.3945312e-01   4.2968750e-01   4.1992188e-01   4.1503906e-01   4.0527344e-01   3.9550781e-01   4.0039062e-01   3.9550781e-01   3.9550781e-01   4.0527344e-01   4.1992188e-01   4.3945312e-01   4.5898438e-01   4.8339844e-01   5.0781250e-01   5.2734375e-01   5.5175781e-01   5.7617188e-01   5.9570312e-01   6.1523438e-01   6.4453125e-01   6.5917969e-01   6.7382812e-01   6.8359375e-01   6.9824219e-01   7.0800781e-01   7.1777344e-01   7.2265625e-01   7.2753906e-01   7.2753906e-01   7.2265625e-01   7.2265625e-01   7.1777344e-01   7.1777344e-01   7.1289062e-01   7.0312500e-01   6.9824219e-01   6.8847656e-01   6.8359375e-01   6.7382812e-01   6.6894531e-01   6.6894531e-01   6.5917969e-01   6.5429688e-01   6.5429688e-01   6.4453125e-01   6.2988281e-01   6.2500000e-01   6.2011719e-01   6.1035156e-01   6.0058594e-01   5.9082031e-01   5.8105469e-01   5.7617188e-01   5.6640625e-01   5.5664062e-01   5.4687500e-01   5.3710938e-01   5.2734375e-01   5.1757812e-01   5.0781250e-01   5.0292969e-01   4.9316406e-01   4.8828125e-01   4.8339844e-01   4.7363281e-01   4.7363281e-01   4.6875000e-01   4.5410156e-01   4.4921875e-01   4.4433594e-01   4.3457031e-01   4.2968750e-01   4.2968750e-01   4.1992188e-01   4.1992188e-01   4.1992188e-01   4.1992188e-01   4.3457031e-01   4.3945312e-01   4.5898438e-01   4.8339844e-01   4.9316406e-01   5.2246094e-01   5.4687500e-01   5.6640625e-01   5.9570312e-01   6.1523438e-01   6.3476562e-01   6.5429688e-01   6.7382812e-01   6.8847656e-01   7.0312500e-01   7.1777344e-01   7.2753906e-01   7.4218750e-01   7.4707031e-01   7.5195312e-01   7.5683594e-01   7.5195312e-01   7.5195312e-01   7.4707031e-01   7.4218750e-01   7.3730469e-01   7.3242188e-01   7.2753906e-01   7.2265625e-01   7.1289062e-01   7.1289062e-01   7.0312500e-01   6.9335938e-01   6.9335938e-01   6.8359375e-01   6.7382812e-01   6.6894531e-01   6.5917969e-01   6.5917969e-01   6.4453125e-01   6.3476562e-01   6.2988281e-01   6.2500000e-01   6.1035156e-01   6.0546875e-01   5.9570312e-01   5.8593750e-01   5.7617188e-01   5.6640625e-01   5.5175781e-01   5.4687500e-01   5.3710938e-01   5.2734375e-01   5.2246094e-01   5.1757812e-01   5.1269531e-01   5.0292969e-01   4.9804688e-01   4.8339844e-01   4.7851562e-01   4.7363281e-01   4.6386719e-01   4.6386719e-01   4.5410156e-01   4.5410156e-01   4.4921875e-01   4.4433594e-01   4.5898438e-01   4.5410156e-01   4.6386719e-01   4.8339844e-01   4.9316406e-01   5.1269531e-01   5.3710938e-01   5.5664062e-01   5.8105469e-01   6.0058594e-01   6.2011719e-01   6.4941406e-01   6.6894531e-01   6.9335938e-01   7.0800781e-01   7.2753906e-01   7.4707031e-01   7.6171875e-01   7.7148438e-01   7.8613281e-01   7.9101562e-01   7.9589844e-01   8.0078125e-01   8.0078125e-01   8.0078125e-01   8.0566406e-01   7.9589844e-01   7.9589844e-01   7.8613281e-01   7.8125000e-01   7.7636719e-01   7.7148438e-01   7.6171875e-01   7.5683594e-01   7.4707031e-01   7.4218750e-01   7.3242188e-01   7.2265625e-01   7.0800781e-01   7.0312500e-01   6.8847656e-01   6.7871094e-01   6.7382812e-01   6.6406250e-01   6.5429688e-01   6.4941406e-01   6.3476562e-01   6.2988281e-01   6.1523438e-01   6.0546875e-01   6.0058594e-01   5.9082031e-01   5.8105469e-01   5.7128906e-01   5.6640625e-01   5.5664062e-01   5.4687500e-01   5.3710938e-01   5.3222656e-01   5.2246094e-01   5.1757812e-01   5.1269531e-01   4.9804688e-01   4.8828125e-01   4.8828125e-01   4.7851562e-01   4.7363281e-01   4.7363281e-01   4.6875000e-01   4.6875000e-01   4.6875000e-01   4.7363281e-01   4.9316406e-01   4.9804688e-01   5.1269531e-01   5.3710938e-01   5.5664062e-01   5.7617188e-01   6.0058594e-01   6.2011719e-01   6.4453125e-01   6.6894531e-01   6.8359375e-01   6.9824219e-01   7.0800781e-01   7.2265625e-01   7.3730469e-01   7.4707031e-01   7.6171875e-01   7.6660156e-01   7.7148438e-01   7.7636719e-01   7.7636719e-01   7.7148438e-01   7.7148438e-01   7.6660156e-01   7.6660156e-01   7.6171875e-01   7.5195312e-01   7.5195312e-01   7.4707031e-01   7.3730469e-01   7.3242188e-01   7.2753906e-01   7.1289062e-01   7.0800781e-01   6.9335938e-01   6.8359375e-01   6.7871094e-01   6.6406250e-01   6.5917969e-01   6.4453125e-01   6.3476562e-01   6.2500000e-01   6.1035156e-01   6.0546875e-01   5.9082031e-01   5.8593750e-01   5.7617188e-01   5.6640625e-01   5.5664062e-01   5.4687500e-01   5.4199219e-01   5.2734375e-01   5.1757812e-01   5.1269531e-01   5.0292969e-01   4.9316406e-01   4.8828125e-01   4.7851562e-01   4.7363281e-01   4.6875000e-01   4.5898438e-01   4.5410156e-01   4.4433594e-01   4.3945312e-01   4.3457031e-01   4.2480469e-01   4.2480469e-01   4.1992188e-01   4.1992188e-01   4.2480469e-01   4.3945312e-01   4.5410156e-01   4.6875000e-01   4.9316406e-01   5.1269531e-01   5.3710938e-01   5.6152344e-01   5.8105469e-01   6.1035156e-01   6.2988281e-01   6.4941406e-01   6.7382812e-01   6.8359375e-01   7.0312500e-01   7.1777344e-01   7.2753906e-01   7.4218750e-01   7.5195312e-01   7.5683594e-01   7.6171875e-01   7.6171875e-01   7.6660156e-01   7.6660156e-01   7.5195312e-01   7.4707031e-01   7.4218750e-01   7.3242188e-01   7.2753906e-01   7.1777344e-01   7.1289062e-01   7.0800781e-01   6.9824219e-01   6.9335938e-01   6.8359375e-01   6.7871094e-01   6.6894531e-01   6.5917969e-01   6.4941406e-01   6.3964844e-01   6.2988281e-01   6.2011719e-01   6.1035156e-01   6.0058594e-01   5.9082031e-01   5.8105469e-01   5.7128906e-01   5.6640625e-01   5.5664062e-01   5.4687500e-01   5.3710938e-01   5.2734375e-01   5.2246094e-01   5.0781250e-01   5.0292969e-01   4.9316406e-01   4.8828125e-01   4.8339844e-01   4.7363281e-01   4.7851562e-01   4.6386719e-01   4.6386719e-01   4.5898438e-01   4.4921875e-01   4.4921875e-01   4.3945312e-01   4.3457031e-01   4.2968750e-01   4.2480469e-01   4.2968750e-01   4.3945312e-01   4.4921875e-01   4.5898438e-01   4.8339844e-01   5.0292969e-01   5.2734375e-01   5.5175781e-01   5.6640625e-01   5.8593750e-01   6.0546875e-01   6.2988281e-01   6.5429688e-01   6.6894531e-01   6.8359375e-01   7.0312500e-01   7.0800781e-01   7.2265625e-01   7.3730469e-01   7.3730469e-01   7.4218750e-01   7.3730469e-01   7.3730469e-01   7.3730469e-01   7.3242188e-01   7.3730469e-01   7.3242188e-01   7.2265625e-01   7.1777344e-01   7.1777344e-01   7.0800781e-01   7.0312500e-01   6.9824219e-01   6.9335938e-01   6.8359375e-01   6.7871094e-01   6.7382812e-01   6.6894531e-01   6.5429688e-01   6.4453125e-01   6.3964844e-01   6.2500000e-01   6.2011719e-01   6.1035156e-01   5.9570312e-01   5.9082031e-01   5.7617188e-01   5.7128906e-01   5.6152344e-01   5.5175781e-01   5.4687500e-01   5.3710938e-01   5.2734375e-01   5.2246094e-01   5.1757812e-01   5.0292969e-01   4.9316406e-01   4.9316406e-01   4.8339844e-01   4.7851562e-01   4.7363281e-01   4.6386719e-01   4.5898438e-01   4.5410156e-01   4.4921875e-01   4.4433594e-01   4.3945312e-01   4.3457031e-01   4.3945312e-01   4.3457031e-01   4.4433594e-01   4.5410156e-01   4.6875000e-01   4.9316406e-01   5.0781250e-01   5.3222656e-01   5.4687500e-01   5.7128906e-01   5.9570312e-01   6.2011719e-01   6.3964844e-01   6.5917969e-01   6.7871094e-01   6.9335938e-01   7.0800781e-01   7.2265625e-01   7.3242188e-01   7.5683594e-01   7.6171875e-01   7.6660156e-01   7.7636719e-01   7.7148438e-01   7.7636719e-01   7.7148438e-01   7.6660156e-01   7.6660156e-01   7.6171875e-01   7.5195312e-01   7.4707031e-01   7.3730469e-01   7.3730469e-01   7.2753906e-01   7.1777344e-01   7.1289062e-01   7.0800781e-01   6.9335938e-01   6.8847656e-01   6.7871094e-01   6.7382812e-01   6.5917969e-01   6.5429688e-01   6.4453125e-01   6.3964844e-01   6.2500000e-01   6.1523438e-01   6.1035156e-01   5.9570312e-01   5.9082031e-01   5.8105469e-01   5.6640625e-01   5.6152344e-01   5.4687500e-01   5.4199219e-01   5.3222656e-01   5.1757812e-01   5.1269531e-01   5.0292969e-01   4.9316406e-01   4.8828125e-01   4.8339844e-01   4.7363281e-01   4.6386719e-01   4.6386719e-01   4.4921875e-01   4.4433594e-01   4.3945312e-01   4.2968750e-01   4.3457031e-01   4.3457031e-01   4.2968750e-01   4.3457031e-01   4.4433594e-01   4.5898438e-01   4.7851562e-01   4.9804688e-01   5.2246094e-01   5.4199219e-01   5.6640625e-01   5.9082031e-01   6.1035156e-01   6.3476562e-01   6.5917969e-01   6.7871094e-01   6.9824219e-01   7.1289062e-01   7.2753906e-01   7.4218750e-01   7.5195312e-01   7.6171875e-01   7.7148438e-01   7.7636719e-01   7.7636719e-01   7.7636719e-01   7.7148438e-01   7.7148438e-01   7.6660156e-01   7.6171875e-01   7.5195312e-01   7.4707031e-01   7.4218750e-01   7.3730469e-01   7.2753906e-01   7.2265625e-01   7.1777344e-01   7.1289062e-01   6.9824219e-01   6.8847656e-01   6.7382812e-01   6.6894531e-01   6.6406250e-01   6.5429688e-01   6.3964844e-01   6.2988281e-01   6.2011719e-01   6.0546875e-01   5.9570312e-01   5.9082031e-01   5.8105469e-01   5.7128906e-01   5.6152344e-01   5.5664062e-01   5.4199219e-01   5.3222656e-01   5.2246094e-01   5.1269531e-01   5.0781250e-01   4.9804688e-01   4.8828125e-01   4.8339844e-01   4.7363281e-01   4.6875000e-01   4.5898438e-01   4.4921875e-01   4.4433594e-01   4.4433594e-01   4.3457031e-01   4.2480469e-01   4.2968750e-01   4.1992188e-01   4.2480469e-01   4.2968750e-01   4.3945312e-01   4.5410156e-01   4.6875000e-01   4.9316406e-01   5.1757812e-01   5.3222656e-01   5.6152344e-01   5.8105469e-01   6.0546875e-01   6.2500000e-01   6.4453125e-01   6.6894531e-01   6.8847656e-01   7.0312500e-01   7.2265625e-01   7.3730469e-01   7.4218750e-01   7.5195312e-01   7.6171875e-01   7.6660156e-01   7.6660156e-01   7.6660156e-01   7.6660156e-01   7.6660156e-01   7.5683594e-01   7.5195312e-01   7.5683594e-01   7.4218750e-01   7.3242188e-01   7.2753906e-01   7.1777344e-01   7.0800781e-01   7.0312500e-01   6.8847656e-01   6.8359375e-01   6.7382812e-01   6.6406250e-01   6.5429688e-01   6.4941406e-01   6.3476562e-01   6.2988281e-01   6.1523438e-01   6.0058594e-01   5.9082031e-01   5.8105469e-01   5.7128906e-01   5.6640625e-01   5.5175781e-01   5.4199219e-01   5.3222656e-01   5.2246094e-01   5.1757812e-01   5.0292969e-01   4.9316406e-01   4.9316406e-01   4.7851562e-01   4.6875000e-01   4.5898438e-01   4.4921875e-01   4.4433594e-01   4.3457031e-01   4.2480469e-01   4.1992188e-01   4.1503906e-01   4.0527344e-01   4.0039062e-01   3.9062500e-01   3.8574219e-01   3.8574219e-01   3.8574219e-01   3.9062500e-01   4.0039062e-01   4.1503906e-01   4.3457031e-01   4.5410156e-01   4.7851562e-01   5.0781250e-01   5.2734375e-01   5.4687500e-01   5.7617188e-01   5.9082031e-01   6.1523438e-01   6.3476562e-01   6.5429688e-01   6.7382812e-01   6.8847656e-01   6.9824219e-01   7.0800781e-01   7.1777344e-01   7.2265625e-01   7.2753906e-01   7.2265625e-01   7.2265625e-01   7.2265625e-01   7.1289062e-01   7.0800781e-01   7.0800781e-01   6.9824219e-01   6.9824219e-01   6.8847656e-01   6.7871094e-01   6.7382812e-01   6.6406250e-01   6.5917969e-01   6.4941406e-01   6.3964844e-01   6.3476562e-01   6.2500000e-01   6.1523438e-01   6.0546875e-01   5.9570312e-01   5.9082031e-01   5.7617188e-01   5.6640625e-01   5.5664062e-01   5.4687500e-01   5.3710938e-01   5.2246094e-01   5.1757812e-01   5.0292969e-01   4.9316406e-01   4.8828125e-01   4.7363281e-01   4.6875000e-01   4.6386719e-01   4.5410156e-01   4.4921875e-01   4.3945312e-01   4.2968750e-01   4.2480469e-01   4.1503906e-01   4.1503906e-01   4.0527344e-01   3.9550781e-01   3.9550781e-01   3.9062500e-01   3.8085938e-01   3.8085938e-01   3.8085938e-01   3.8085938e-01   3.9550781e-01   4.0039062e-01   4.1503906e-01   4.3945312e-01   4.6386719e-01   4.8339844e-01   5.0781250e-01   5.3710938e-01   5.6152344e-01   5.8105469e-01   6.0546875e-01   6.2988281e-01   6.4941406e-01   6.6894531e-01   6.8359375e-01   6.9824219e-01   7.1289062e-01   7.1777344e-01   7.2753906e-01   7.3730469e-01   7.3730469e-01   7.3730469e-01   7.3730469e-01   7.3242188e-01   7.3730469e-01   7.3242188e-01   7.2265625e-01   7.1777344e-01   7.1289062e-01   7.0312500e-01   6.9824219e-01   6.8847656e-01   6.8359375e-01   6.7382812e-01   6.6406250e-01   6.5917969e-01   6.4941406e-01   6.3964844e-01   6.2988281e-01   6.2011719e-01   6.1523438e-01   6.0546875e-01   5.9570312e-01   5.9082031e-01   5.7617188e-01   5.7128906e-01   5.6152344e-01   5.5175781e-01   5.4199219e-01   5.3222656e-01   5.2734375e-01   5.1757812e-01   5.0781250e-01   5.0781250e-01   4.9316406e-01   4.7851562e-01   4.7363281e-01   4.6386719e-01   4.5898438e-01   4.4921875e-01   4.3945312e-01   4.3457031e-01   4.2480469e-01   4.1503906e-01   4.1015625e-01   4.0039062e-01   4.0039062e-01   3.9550781e-01   3.9550781e-01   3.9062500e-01   3.9550781e-01   4.0527344e-01   4.2480469e-01   4.4433594e-01   4.6875000e-01   4.9804688e-01   5.2246094e-01   5.4687500e-01   5.8105469e-01   6.1035156e-01   6.2988281e-01   6.5429688e-01   6.7382812e-01   7.0312500e-01   7.2265625e-01   7.3242188e-01   7.5195312e-01   7.6171875e-01   7.8125000e-01   7.8613281e-01   7.8613281e-01   7.9589844e-01   7.9589844e-01   7.9101562e-01   7.8613281e-01   7.8125000e-01   7.7148438e-01   7.6660156e-01   7.6171875e-01   7.5195312e-01   7.4218750e-01   7.3730469e-01   7.2753906e-01   7.1777344e-01   7.1289062e-01   7.0312500e-01   6.9824219e-01   6.8847656e-01   6.8359375e-01   6.7382812e-01   6.6406250e-01   6.5429688e-01   6.4453125e-01   6.3476562e-01   6.2988281e-01   6.1523438e-01   6.0546875e-01   5.9082031e-01   5.8105469e-01   5.6640625e-01   5.6152344e-01   5.5175781e-01   5.4199219e-01   5.3222656e-01   5.2246094e-01   5.1757812e-01   5.0292969e-01   4.9316406e-01   4.8339844e-01   4.7363281e-01   4.6875000e-01   4.5898438e-01   4.4433594e-01   4.3945312e-01   4.2968750e-01   4.1992188e-01   4.1503906e-01   4.1015625e-01   4.0039062e-01   4.0527344e-01   4.0527344e-01   4.1503906e-01   4.2968750e-01   4.4433594e-01   4.6386719e-01   4.9316406e-01   5.1757812e-01   5.5175781e-01   5.7617188e-01   6.0058594e-01   6.2988281e-01   6.5429688e-01   6.7871094e-01   7.0312500e-01   7.1777344e-01   7.3730469e-01   7.5195312e-01   7.6660156e-01   7.8125000e-01   7.8613281e-01   7.9589844e-01   7.9589844e-01   7.9589844e-01   7.9589844e-01   7.9589844e-01   7.9101562e-01   7.9101562e-01   7.8613281e-01   7.8125000e-01   7.7636719e-01   7.7148438e-01   7.6171875e-01   7.5683594e-01   7.4707031e-01   7.4218750e-01   7.3730469e-01   7.2265625e-01   7.1289062e-01   7.0800781e-01   6.9335938e-01   6.8359375e-01   6.7382812e-01   6.5917969e-01   6.4941406e-01   6.3476562e-01   6.2988281e-01   6.2011719e-01   6.0546875e-01   6.0058594e-01   5.8593750e-01   5.7617188e-01   5.7128906e-01   5.5664062e-01   5.4687500e-01   5.3710938e-01   5.2734375e-01   5.1757812e-01   5.0781250e-01   5.0292969e-01   4.9316406e-01   4.8339844e-01   4.7363281e-01   4.6875000e-01   4.6875000e-01   4.4921875e-01   4.4433594e-01   4.4433594e-01   4.2968750e-01   4.2480469e-01   4.1503906e-01   4.1503906e-01   4.1503906e-01   4.1503906e-01   4.2968750e-01   4.4433594e-01   4.6386719e-01   4.9316406e-01   5.2246094e-01   5.3710938e-01   5.6640625e-01   5.9082031e-01   6.1523438e-01   6.3964844e-01   6.5917969e-01   6.8359375e-01   7.0312500e-01   7.1289062e-01   7.3242188e-01   7.4218750e-01   7.5195312e-01   7.6171875e-01   7.6660156e-01   7.6171875e-01   7.6660156e-01   7.6171875e-01   7.5683594e-01   7.5683594e-01   7.5195312e-01   7.4707031e-01   7.4218750e-01   7.3730469e-01   7.3242188e-01   7.3242188e-01   7.2265625e-01   7.1777344e-01   7.0800781e-01   7.0312500e-01   6.9824219e-01   6.8847656e-01   6.7382812e-01   6.6894531e-01   6.5429688e-01   6.4453125e-01   6.3964844e-01   6.2500000e-01   6.2011719e-01   6.0546875e-01   5.9570312e-01   5.8593750e-01   5.7617188e-01   5.6640625e-01   5.5664062e-01   5.4687500e-01   5.3222656e-01   5.3222656e-01   5.1757812e-01   5.0781250e-01   5.0781250e-01   4.9316406e-01   4.8339844e-01   4.7851562e-01   4.6875000e-01   4.5898438e-01   4.5410156e-01   4.4433594e-01   4.3945312e-01   4.2480469e-01   4.2480469e-01   4.1503906e-01   4.1015625e-01   4.1015625e-01   4.0527344e-01   4.0527344e-01   4.1503906e-01   4.2968750e-01   4.4433594e-01   4.6875000e-01   4.8828125e-01   5.1269531e-01   5.4199219e-01   5.6152344e-01   5.8593750e-01   6.1523438e-01   6.3476562e-01   6.5917969e-01   6.7871094e-01   6.9335938e-01   7.1289062e-01   7.1777344e-01   7.3730469e-01   7.4707031e-01   7.5195312e-01   7.5683594e-01   7.5683594e-01   7.5683594e-01   7.5195312e-01   7.5683594e-01   7.5195312e-01   7.4707031e-01   7.4218750e-01   7.3242188e-01   7.3242188e-01   7.2753906e-01   7.1777344e-01   7.1777344e-01   7.0800781e-01   6.9335938e-01   6.8847656e-01   6.7871094e-01   6.6894531e-01   6.6406250e-01   6.4941406e-01   6.4453125e-01   6.3476562e-01   6.2500000e-01   6.1523438e-01   6.0546875e-01   5.9570312e-01   5.9082031e-01   5.8105469e-01   5.6640625e-01   5.5664062e-01   5.4687500e-01   5.3222656e-01   5.2246094e-01   5.1269531e-01   5.0781250e-01   4.9804688e-01   4.8828125e-01   4.8339844e-01   4.7363281e-01   4.6875000e-01   4.6386719e-01   4.5410156e-01   4.5410156e-01   4.4921875e-01   4.3945312e-01   4.3945312e-01   4.2968750e-01   4.2480469e-01   4.2480469e-01   4.1992188e-01   4.2480469e-01   4.3457031e-01   4.3945312e-01   4.5898438e-01   4.8339844e-01   5.0292969e-01   5.2734375e-01   5.5175781e-01   5.7617188e-01   6.0546875e-01   6.2988281e-01   6.5917969e-01   6.8359375e-01   7.0312500e-01   7.1777344e-01   7.3730469e-01   7.5195312e-01   7.6660156e-01   7.8125000e-01   7.9101562e-01   8.0078125e-01   8.0566406e-01   8.0566406e-01   8.0078125e-01   7.9589844e-01   7.9589844e-01   7.9589844e-01   7.8613281e-01   7.8125000e-01   7.7636719e-01   7.6660156e-01   7.6171875e-01   7.5195312e-01   7.4707031e-01   7.4218750e-01   7.3242188e-01   7.1777344e-01   7.1289062e-01   7.0312500e-01   6.9335938e-01   6.8359375e-01   6.7382812e-01   6.6406250e-01   6.5917969e-01   6.4453125e-01   6.3476562e-01   6.2500000e-01   6.1035156e-01   6.1035156e-01   5.9570312e-01   5.8593750e-01   5.8105469e-01   5.6640625e-01   5.5175781e-01   5.4199219e-01   5.3222656e-01   5.2246094e-01   5.1757812e-01   5.0781250e-01   4.9804688e-01   4.9316406e-01   4.8339844e-01   4.8339844e-01   4.6875000e-01   4.6386719e-01   4.5898438e-01   4.4921875e-01   4.3945312e-01   4.3457031e-01   4.2480469e-01   4.2480469e-01   4.1992188e-01   4.1992188e-01   4.3457031e-01   4.3457031e-01   4.5410156e-01   4.6875000e-01   4.9316406e-01   5.1757812e-01   5.4199219e-01   5.6640625e-01   5.9082031e-01   6.1523438e-01   6.4453125e-01   6.6894531e-01   6.9335938e-01   7.1289062e-01   7.2753906e-01   7.4707031e-01   7.6660156e-01   7.8613281e-01   7.9589844e-01   8.0078125e-01   8.1054688e-01   8.1542969e-01   8.1542969e-01   8.1542969e-01   8.1054688e-01   8.1054688e-01   8.0566406e-01   7.9589844e-01   7.9589844e-01   7.8613281e-01   7.7636719e-01   7.6660156e-01   7.5683594e-01   7.5195312e-01   7.4218750e-01   7.3730469e-01   7.2265625e-01   7.1777344e-01   7.0800781e-01   6.9824219e-01   6.8359375e-01   6.7382812e-01   6.6894531e-01   6.5429688e-01   6.4453125e-01   6.3476562e-01   6.2500000e-01   6.1523438e-01   6.0058594e-01   5.8593750e-01   5.8105469e-01   5.7128906e-01   5.5664062e-01   5.4687500e-01   5.3222656e-01   5.2734375e-01   5.1757812e-01   5.0781250e-01   4.9804688e-01   4.8339844e-01   4.7851562e-01   4.7363281e-01   4.6386719e-01   4.5410156e-01   4.4921875e-01   4.3945312e-01   4.3457031e-01   4.3457031e-01   4.2480469e-01   4.1992188e-01   4.1503906e-01   4.1503906e-01   4.1503906e-01   4.2480469e-01   4.3945312e-01   4.6386719e-01   4.7851562e-01   5.0781250e-01   5.3710938e-01   5.6152344e-01   5.8593750e-01   6.1523438e-01   6.3476562e-01   6.6406250e-01   6.8359375e-01   7.0800781e-01   7.2265625e-01   7.4218750e-01   7.5683594e-01   7.7148438e-01   7.8125000e-01   7.9101562e-01   8.0078125e-01   8.0078125e-01   8.0078125e-01   8.0566406e-01   8.0078125e-01   7.9589844e-01   7.9101562e-01   7.8613281e-01   7.8125000e-01   7.7148438e-01   7.6171875e-01   7.5195312e-01   7.4218750e-01   7.3242188e-01   7.2265625e-01   7.1289062e-01   6.9824219e-01   6.8847656e-01   6.7871094e-01   6.6894531e-01   6.6406250e-01   6.4941406e-01   6.4453125e-01   6.2988281e-01   6.1523438e-01   6.1035156e-01   5.9570312e-01   5.8593750e-01   5.7617188e-01   5.7128906e-01   5.6152344e-01   5.5175781e-01   5.3710938e-01   5.3222656e-01   5.1757812e-01   5.0781250e-01   5.0781250e-01   4.9316406e-01   4.8339844e-01   4.7363281e-01   4.6386719e-01   4.6386719e-01   4.5410156e-01   4.4433594e-01   4.3457031e-01   4.2480469e-01   4.1503906e-01   4.1015625e-01   4.0039062e-01   3.9550781e-01   3.9550781e-01   3.8574219e-01   3.8574219e-01   3.9062500e-01   3.9550781e-01   4.0527344e-01   4.2480469e-01   4.4921875e-01   4.7363281e-01   4.9316406e-01   5.2246094e-01   5.5175781e-01   5.7617188e-01   6.0058594e-01   6.2500000e-01   6.4941406e-01   6.6406250e-01   6.8359375e-01   7.0312500e-01   7.1777344e-01   7.3242188e-01   7.4218750e-01   7.5195312e-01   7.5683594e-01   7.5683594e-01   7.6171875e-01   7.5683594e-01   7.5683594e-01   7.5683594e-01   7.5195312e-01   7.4707031e-01   7.4218750e-01   7.3242188e-01   7.3242188e-01   7.2753906e-01   7.1777344e-01   7.1289062e-01   7.0312500e-01   6.9824219e-01   6.8847656e-01   6.7871094e-01   6.7382812e-01   6.6406250e-01   6.5429688e-01   6.4453125e-01   6.3476562e-01   6.2988281e-01   6.1523438e-01   6.0058594e-01   5.9570312e-01   5.8593750e-01   5.7128906e-01   5.6640625e-01   5.5664062e-01   5.4687500e-01   5.3710938e-01   5.2246094e-01   5.1269531e-01   5.0292969e-01   4.9316406e-01   4.8339844e-01   4.7363281e-01   4.5898438e-01   4.4921875e-01   4.4433594e-01   4.2968750e-01   4.2480469e-01   4.1992188e-01   4.1015625e-01   4.0527344e-01   3.9550781e-01   3.9062500e-01   3.9062500e-01   3.8085938e-01   3.7597656e-01   3.8085938e-01   3.8085938e-01   3.9062500e-01   4.1015625e-01   4.2480469e-01   4.4921875e-01   4.6875000e-01   4.9804688e-01   5.2734375e-01   5.5175781e-01   5.7617188e-01   6.0058594e-01   6.2500000e-01   6.5429688e-01   6.6894531e-01   6.9335938e-01   7.0800781e-01   7.2753906e-01   7.3730469e-01   7.5195312e-01   7.5683594e-01   7.6171875e-01   7.6660156e-01   7.6660156e-01   7.6660156e-01   7.7148438e-01   7.6660156e-01   7.6660156e-01   7.6660156e-01   7.5683594e-01   7.5683594e-01   7.5195312e-01   7.4218750e-01   7.4218750e-01   7.2753906e-01   7.1777344e-01   7.1777344e-01   7.0312500e-01   6.9824219e-01   6.8847656e-01   6.7871094e-01   6.6894531e-01   6.5917969e-01   6.4941406e-01   6.3964844e-01   6.2988281e-01   6.2011719e-01   6.1523438e-01   5.9570312e-01   5.8593750e-01   5.8105469e-01   5.6640625e-01   5.5664062e-01   5.4687500e-01   5.3710938e-01   5.2246094e-01   5.1757812e-01   5.0292969e-01   5.0292969e-01   4.8339844e-01   4.8339844e-01   4.7363281e-01   4.5898438e-01   4.5410156e-01   4.4921875e-01   4.3945312e-01   4.3457031e-01   4.2968750e-01   4.1992188e-01   4.1503906e-01   4.1015625e-01   4.0527344e-01   4.0039062e-01   4.0039062e-01   4.0527344e-01   4.1503906e-01   4.2480469e-01   4.4433594e-01   4.6875000e-01   4.9316406e-01   5.1757812e-01   5.4687500e-01   5.7128906e-01   6.0058594e-01   6.2988281e-01   6.5429688e-01   6.7871094e-01   7.0312500e-01   7.2265625e-01   7.4218750e-01   7.5683594e-01   7.7148438e-01   7.8125000e-01   7.9101562e-01   8.0078125e-01   8.0566406e-01   8.0566406e-01   8.1054688e-01   8.1054688e-01   8.0566406e-01   8.1054688e-01   8.0078125e-01   7.9589844e-01   7.9589844e-01   7.8613281e-01   7.7636719e-01   7.7148438e-01   7.6171875e-01   7.5683594e-01   7.4707031e-01   7.3730469e-01   7.3242188e-01   7.1777344e-01   7.1289062e-01   7.0312500e-01   6.8359375e-01   6.7382812e-01   6.6406250e-01   6.5429688e-01   6.4453125e-01   6.3476562e-01   6.2500000e-01   6.1523438e-01   6.0058594e-01   5.9082031e-01   5.8593750e-01   5.7128906e-01   5.6152344e-01   5.5664062e-01   5.4199219e-01   5.3222656e-01   5.2246094e-01   5.1269531e-01   5.0292969e-01   4.9316406e-01   4.8339844e-01   4.7363281e-01   4.6386719e-01   4.5898438e-01   4.4921875e-01   4.3945312e-01   4.3457031e-01   4.2480469e-01   4.1503906e-01   4.0527344e-01   4.0039062e-01   4.0039062e-01   3.9550781e-01   4.0039062e-01   4.1015625e-01   4.2480469e-01   4.4433594e-01   4.6386719e-01   4.9316406e-01   5.1757812e-01   5.4687500e-01   5.7128906e-01   6.0058594e-01   6.2011719e-01   6.4941406e-01   6.6894531e-01   6.9335938e-01   7.1289062e-01   7.2753906e-01   7.4707031e-01   7.6171875e-01   7.7148438e-01   7.8125000e-01   7.8613281e-01   7.9101562e-01   7.9101562e-01   7.9101562e-01   7.9589844e-01   7.8613281e-01   7.8613281e-01   7.8613281e-01   7.7636719e-01   7.7148438e-01   7.6660156e-01   7.5683594e-01   7.5195312e-01   7.4218750e-01   7.3242188e-01   7.2753906e-01   7.1289062e-01   7.0312500e-01   6.9335938e-01   6.8359375e-01   6.7382812e-01   6.6406250e-01   6.4941406e-01   6.3964844e-01   6.2988281e-01   6.1523438e-01   6.0546875e-01   5.9570312e-01   5.8593750e-01   5.7128906e-01   5.6152344e-01   5.5175781e-01   5.4199219e-01   5.3222656e-01   5.2246094e-01   5.1757812e-01   5.0781250e-01   4.9804688e-01   4.9316406e-01   4.7851562e-01   4.7363281e-01   4.6875000e-01   4.5898438e-01   4.4921875e-01   4.3945312e-01   4.3457031e-01   4.2968750e-01   4.1992188e-01   4.1503906e-01   4.1503906e-01   4.0527344e-01   4.0039062e-01   4.0039062e-01   3.9550781e-01   4.0039062e-01   4.0527344e-01   4.1992188e-01   4.4921875e-01   4.6386719e-01   4.8828125e-01   5.1269531e-01   5.3710938e-01   5.6152344e-01   5.9082031e-01   6.1035156e-01   6.3964844e-01   6.5917969e-01   6.7871094e-01   6.9824219e-01   7.1777344e-01   7.3242188e-01   7.4707031e-01   7.5683594e-01   7.6171875e-01   7.6660156e-01   7.6660156e-01   7.6660156e-01   7.6171875e-01   7.6171875e-01   7.6171875e-01   7.5683594e-01   7.5195312e-01   7.5195312e-01   7.4218750e-01   7.3730469e-01   7.3730469e-01   7.2753906e-01   7.1777344e-01   7.0800781e-01   6.9824219e-01   6.9335938e-01   6.7871094e-01   6.7382812e-01   6.6894531e-01   6.5429688e-01   6.4453125e-01   6.3476562e-01   6.2011719e-01   6.1523438e-01   6.0546875e-01   5.9570312e-01   5.8105469e-01   5.7617188e-01   5.6640625e-01   5.5664062e-01   5.4687500e-01   5.3222656e-01   5.2246094e-01   5.1269531e-01   5.0292969e-01   4.9804688e-01   4.8828125e-01   4.7851562e-01   4.7851562e-01   4.6386719e-01   4.5410156e-01   4.4921875e-01   4.4433594e-01   4.3945312e-01   4.2968750e-01   4.1992188e-01   4.1015625e-01   4.0527344e-01   3.9550781e-01   3.9062500e-01   3.9062500e-01   3.9550781e-01   3.9550781e-01   4.1503906e-01   4.2968750e-01   4.4921875e-01   4.6875000e-01   5.0292969e-01   5.2734375e-01   5.5664062e-01   5.8593750e-01   6.0546875e-01   6.3476562e-01   6.5917969e-01   6.7871094e-01   6.9824219e-01   7.1777344e-01   7.3242188e-01   7.4707031e-01   7.5683594e-01   7.6660156e-01   7.7148438e-01   7.7148438e-01   7.7636719e-01   7.8125000e-01   7.7148438e-01   7.7148438e-01   7.6660156e-01   7.6171875e-01   7.6171875e-01   7.5683594e-01   7.5195312e-01   7.4707031e-01   7.3730469e-01   7.3242188e-01   7.2753906e-01   7.1777344e-01   7.1289062e-01   7.0312500e-01   6.9335938e-01   6.8847656e-01   6.7382812e-01   6.6406250e-01   6.5917969e-01   6.4941406e-01   6.3964844e-01   6.2988281e-01   6.2011719e-01   6.1035156e-01   6.0058594e-01   5.9082031e-01   5.8105469e-01   5.7128906e-01   5.6152344e-01   5.5175781e-01   5.4199219e-01   5.3222656e-01   5.2734375e-01   5.1269531e-01   5.0781250e-01   5.0292969e-01   4.8828125e-01   4.8339844e-01   4.7363281e-01   4.6386719e-01   4.5898438e-01   4.5410156e-01   4.4921875e-01   4.4433594e-01   4.3457031e-01   4.3457031e-01   4.3457031e-01   4.2480469e-01   4.2480469e-01   4.3457031e-01   4.4433594e-01   4.6386719e-01   4.8339844e-01   5.0781250e-01   5.3710938e-01   5.6152344e-01   5.8593750e-01   6.1523438e-01   6.3964844e-01   6.6894531e-01   6.9824219e-01   7.1289062e-01   7.3730469e-01   7.6171875e-01   7.7636719e-01   7.9101562e-01   8.0566406e-01   8.1542969e-01   8.3007812e-01   8.3007812e-01   8.3496094e-01   8.3496094e-01   8.3007812e-01   8.2519531e-01   8.2031250e-01   8.1542969e-01   8.1054688e-01   8.0566406e-01   7.9589844e-01   7.9101562e-01   7.8125000e-01   7.7148438e-01   7.6660156e-01   7.6171875e-01   7.5195312e-01   7.4707031e-01   7.3730469e-01   7.2753906e-01   7.1777344e-01   7.0312500e-01   6.9824219e-01   6.8359375e-01   6.7382812e-01   6.6406250e-01   6.5429688e-01   6.3964844e-01   6.2988281e-01   6.2011719e-01   6.1035156e-01   5.9570312e-01   5.9082031e-01   5.8105469e-01   5.6640625e-01   5.6152344e-01   5.4687500e-01   5.4199219e-01   5.2734375e-01   5.2246094e-01   5.1269531e-01   5.0292969e-01   4.9316406e-01   4.8339844e-01   4.7851562e-01   4.7363281e-01   4.6386719e-01   4.5410156e-01   4.4921875e-01   4.4433594e-01   4.4433594e-01   4.3457031e-01   4.2968750e-01   4.3945312e-01   4.4433594e-01   4.5410156e-01   4.7363281e-01   4.8828125e-01   5.1757812e-01   5.4199219e-01   5.6640625e-01   5.9082031e-01   6.1523438e-01   6.4941406e-01   6.7871094e-01   6.9824219e-01   7.2265625e-01   7.4218750e-01   7.6171875e-01   7.8125000e-01   7.9589844e-01   8.1054688e-01   8.2519531e-01   8.3007812e-01   8.3007812e-01   8.3984375e-01   8.3496094e-01   8.3496094e-01   8.3496094e-01   8.2519531e-01   8.2519531e-01   8.1542969e-01   8.0566406e-01   8.0078125e-01   7.9101562e-01   7.8613281e-01   7.7636719e-01   7.6660156e-01   7.6171875e-01   7.4707031e-01   7.3730469e-01   7.3242188e-01   7.2265625e-01   7.1289062e-01   6.9824219e-01   6.9335938e-01   6.7871094e-01   6.6894531e-01   6.5917969e-01   6.4453125e-01   6.4453125e-01   6.2500000e-01   6.1523438e-01   6.0058594e-01   5.9082031e-01   5.7617188e-01   5.6152344e-01   5.5175781e-01   5.3710938e-01   5.2734375e-01   5.2246094e-01   5.1269531e-01   5.0292969e-01   4.9804688e-01   4.8828125e-01   4.8339844e-01   4.7363281e-01   4.6386719e-01   4.5898438e-01   4.4921875e-01   4.4433594e-01   4.3457031e-01   4.2968750e-01   4.2480469e-01   4.1992188e-01   4.1503906e-01   4.1503906e-01   4.1992188e-01   4.3457031e-01   4.4433594e-01   4.6875000e-01   4.9316406e-01   5.1269531e-01   5.3710938e-01   5.6152344e-01   5.9082031e-01   6.2011719e-01   6.4453125e-01   6.7382812e-01   6.9824219e-01   7.1777344e-01   7.4218750e-01   7.6660156e-01   7.7636719e-01   7.9101562e-01   8.0078125e-01   8.1054688e-01   8.1542969e-01   8.1542969e-01   8.1542969e-01   8.1054688e-01   8.0566406e-01   8.0078125e-01   7.9589844e-01   7.9101562e-01   7.8613281e-01   7.7636719e-01   7.7148438e-01   7.6660156e-01   7.5683594e-01   7.4707031e-01   7.3730469e-01   7.2753906e-01   7.2265625e-01   7.1289062e-01   6.9824219e-01   6.8847656e-01   6.7871094e-01   6.6894531e-01   6.5917969e-01   6.4941406e-01   6.3476562e-01   6.2988281e-01   6.1523438e-01   6.0058594e-01   5.9570312e-01   5.8105469e-01   5.7128906e-01   5.6152344e-01   5.5175781e-01   5.4199219e-01   5.3222656e-01   5.2246094e-01   5.1269531e-01   5.0781250e-01   4.9316406e-01   4.8339844e-01   4.7363281e-01   4.6875000e-01   4.6386719e-01   4.4921875e-01   4.4433594e-01   4.4433594e-01   4.2968750e-01   4.2480469e-01   4.1992188e-01   4.1015625e-01   4.1015625e-01   4.1015625e-01   4.1015625e-01   4.2480469e-01   4.3457031e-01   4.4921875e-01   4.7851562e-01   4.9804688e-01   5.1757812e-01   5.4199219e-01   5.6640625e-01   5.9082031e-01   6.1035156e-01   6.3476562e-01   6.5917969e-01   6.7871094e-01   6.9335938e-01   7.1289062e-01   7.2753906e-01   7.4218750e-01   7.5683594e-01   7.5683594e-01   7.6171875e-01   7.6660156e-01   7.6660156e-01   7.6660156e-01   7.6171875e-01   7.5683594e-01   7.5683594e-01   7.5195312e-01   7.4707031e-01   7.4218750e-01   7.3242188e-01   7.2753906e-01   7.1777344e-01   7.1289062e-01   7.0800781e-01   6.9824219e-01   6.9335938e-01   6.8359375e-01   6.7382812e-01   6.6894531e-01   6.5917969e-01   6.4453125e-01   6.3964844e-01   6.3476562e-01   6.2011719e-01   6.0546875e-01   6.0058594e-01   5.9082031e-01   5.7617188e-01   5.6640625e-01   5.5664062e-01   5.5175781e-01   5.3710938e-01   5.2734375e-01   5.2246094e-01   5.0781250e-01   4.9804688e-01   4.8828125e-01   4.8339844e-01   4.7851562e-01   4.7363281e-01   4.6386719e-01   4.5898438e-01   4.4921875e-01   4.3945312e-01   4.3945312e-01   4.2480469e-01   4.1503906e-01   4.1503906e-01   4.0527344e-01   4.0527344e-01   4.0527344e-01   4.1015625e-01   4.2968750e-01   4.3945312e-01   4.5898438e-01   4.8828125e-01   5.1269531e-01   5.4199219e-01   5.6640625e-01   5.9082031e-01   6.1523438e-01   6.3964844e-01   6.6406250e-01   6.8847656e-01   7.0800781e-01   7.2753906e-01   7.4707031e-01   7.5683594e-01   7.7148438e-01   7.8613281e-01   7.9101562e-01   7.9101562e-01   8.0078125e-01   7.9589844e-01   7.9101562e-01   7.9101562e-01   7.8613281e-01   7.7636719e-01   7.7148438e-01   7.6660156e-01   7.5683594e-01   7.4707031e-01   7.4707031e-01   7.3730469e-01   7.2753906e-01   7.1777344e-01   7.0800781e-01   6.9824219e-01   6.8847656e-01   6.8359375e-01   6.7382812e-01   6.5917969e-01   6.5429688e-01   6.3964844e-01   6.3476562e-01   6.2500000e-01   6.1523438e-01   6.1035156e-01   5.9570312e-01   5.8593750e-01   5.7617188e-01   5.6640625e-01   5.6152344e-01   5.4687500e-01   5.4199219e-01   5.3710938e-01   5.2246094e-01   5.1269531e-01   5.1269531e-01   4.9804688e-01   4.8828125e-01   4.8339844e-01   4.7363281e-01   4.6875000e-01   4.5898438e-01   4.4921875e-01   4.4433594e-01   4.3457031e-01   4.2480469e-01   4.2480469e-01   4.1503906e-01   4.1992188e-01   4.1992188e-01   4.2968750e-01   4.3945312e-01   4.5410156e-01   4.7363281e-01   4.9804688e-01   5.2246094e-01   5.5175781e-01   5.7617188e-01   6.0058594e-01   6.2988281e-01   6.4941406e-01   6.7382812e-01   6.9824219e-01   7.1777344e-01   7.3730469e-01   7.5683594e-01   7.7148438e-01   7.8613281e-01   7.9589844e-01   8.0078125e-01   8.0566406e-01   8.0566406e-01   8.0566406e-01   8.0566406e-01   8.0078125e-01   8.0078125e-01   7.9101562e-01   7.8613281e-01   7.8125000e-01   7.7636719e-01   7.6660156e-01   7.6171875e-01   7.4707031e-01   7.4218750e-01   7.3242188e-01   7.2265625e-01   7.1777344e-01   7.0312500e-01   6.9335938e-01   6.8359375e-01   6.7382812e-01   6.6406250e-01   6.5429688e-01   6.3964844e-01   6.3476562e-01   6.2500000e-01   6.1523438e-01   6.0546875e-01   5.9570312e-01   5.8593750e-01   5.7128906e-01   5.6640625e-01   5.5664062e-01   5.4687500e-01   5.3710938e-01   5.2734375e-01   5.1757812e-01   5.1269531e-01   5.0292969e-01   4.9316406e-01   4.8339844e-01   4.7363281e-01   4.6875000e-01   4.6386719e-01   4.5410156e-01   4.4433594e-01   4.3945312e-01   4.2968750e-01   4.2480469e-01   4.1503906e-01   4.1503906e-01   4.1503906e-01   4.1503906e-01   4.2480469e-01   4.3945312e-01   4.5410156e-01   4.7363281e-01   4.9804688e-01   5.2246094e-01   5.4687500e-01   5.7128906e-01   6.0058594e-01   6.2500000e-01   6.4941406e-01   6.7382812e-01   6.9335938e-01   7.1289062e-01   7.3730469e-01   7.4707031e-01   7.6171875e-01   7.8125000e-01   7.8613281e-01   7.9101562e-01   7.9589844e-01   8.0078125e-01   8.0078125e-01   8.0078125e-01   7.9589844e-01   7.9101562e-01   7.8613281e-01   7.8125000e-01   7.7148438e-01   7.6660156e-01   7.5683594e-01   7.5195312e-01   7.4218750e-01   7.3730469e-01   7.2753906e-01   7.1777344e-01   7.0800781e-01   7.0312500e-01   6.8847656e-01   6.7871094e-01   6.6894531e-01   6.5917969e-01   6.4941406e-01   6.3476562e-01   6.2988281e-01   6.2011719e-01   6.0546875e-01   5.9570312e-01   5.8593750e-01   5.7617188e-01   5.6640625e-01   5.5664062e-01   5.4687500e-01   5.3710938e-01   5.3222656e-01   5.2246094e-01   5.0781250e-01   4.9804688e-01   4.8828125e-01   4.7851562e-01   4.7363281e-01   4.6386719e-01   4.5898438e-01   4.4921875e-01   4.3945312e-01   4.3457031e-01   4.2480469e-01   4.1992188e-01   4.1015625e-01   4.0039062e-01   4.0039062e-01   3.9550781e-01   4.0039062e-01   4.1015625e-01   4.1503906e-01   4.3457031e-01   4.5410156e-01   4.7363281e-01   4.9804688e-01   5.2734375e-01   5.5175781e-01   5.8105469e-01   6.0058594e-01   6.2500000e-01   6.4941406e-01   6.7382812e-01   6.9335938e-01   7.1289062e-01   7.2753906e-01   7.3730469e-01   7.4707031e-01   7.5195312e-01   7.5683594e-01   7.6171875e-01   7.6171875e-01   7.6171875e-01   7.6171875e-01   7.5683594e-01   7.5195312e-01   7.4707031e-01   7.4707031e-01   7.4218750e-01   7.3242188e-01   7.2753906e-01   7.2265625e-01   7.1777344e-01   7.0800781e-01   6.9824219e-01   6.8847656e-01   6.8359375e-01   6.7382812e-01   6.5917969e-01   6.5917969e-01   6.4453125e-01   6.3476562e-01   6.2500000e-01   6.1523438e-01   6.0546875e-01   5.9570312e-01   5.8105469e-01   5.7128906e-01   5.6152344e-01   5.4687500e-01   5.4199219e-01   5.2734375e-01   5.1757812e-01   5.1269531e-01   4.9804688e-01   4.9316406e-01   4.8339844e-01   4.7363281e-01   4.6386719e-01   4.5898438e-01   4.4921875e-01   4.4433594e-01   4.3457031e-01   4.2968750e-01   4.2480469e-01   4.1503906e-01   4.1015625e-01   4.1015625e-01   4.0039062e-01   3.9550781e-01   3.8574219e-01   3.8574219e-01   3.8574219e-01   3.9062500e-01   4.0527344e-01   4.2480469e-01   4.4433594e-01   4.6875000e-01   4.9316406e-01   5.1757812e-01   5.4687500e-01   5.8105469e-01   6.0058594e-01   6.2988281e-01   6.5429688e-01   6.7382812e-01   6.9824219e-01   7.1289062e-01   7.2753906e-01   7.4218750e-01   7.5195312e-01   7.5683594e-01   7.6660156e-01   7.6171875e-01   7.6660156e-01   7.6171875e-01   7.6171875e-01   7.6171875e-01   7.5683594e-01   7.5195312e-01   7.4707031e-01   7.3730469e-01   7.3730469e-01   7.2753906e-01   7.1777344e-01   7.0800781e-01   7.0312500e-01   6.9824219e-01   6.9335938e-01   6.8359375e-01   6.7382812e-01   6.6894531e-01   6.5429688e-01   6.4453125e-01   6.3964844e-01   6.2500000e-01   6.1523438e-01   6.0058594e-01   5.8593750e-01   5.7617188e-01   5.6640625e-01   5.5664062e-01   5.5175781e-01   5.3710938e-01   5.2734375e-01   5.1757812e-01   5.0781250e-01   5.0292969e-01   4.9804688e-01   4.8339844e-01   4.7851562e-01   4.7851562e-01   4.6386719e-01   4.5898438e-01   4.5410156e-01   4.4433594e-01   4.3945312e-01   4.2968750e-01   4.1992188e-01   4.1503906e-01   4.0527344e-01   4.0039062e-01   3.9550781e-01   3.9550781e-01   4.0039062e-01   4.0527344e-01   4.1992188e-01   4.3457031e-01   4.6386719e-01   4.9316406e-01   5.2246094e-01   5.4199219e-01   5.7128906e-01   6.0546875e-01   6.2988281e-01   6.5429688e-01   6.7382812e-01   7.0312500e-01   7.2265625e-01   7.4707031e-01   7.6171875e-01   7.7636719e-01   7.9101562e-01   7.9589844e-01   8.1054688e-01   8.1054688e-01   8.1054688e-01   8.1054688e-01   8.0566406e-01   8.0566406e-01   7.9589844e-01   7.9101562e-01   7.8613281e-01   7.7636719e-01   7.7148438e-01   7.6660156e-01   7.5683594e-01   7.5195312e-01   7.4707031e-01   7.3730469e-01   7.2753906e-01   7.2265625e-01   7.0800781e-01   7.0312500e-01   6.9335938e-01   6.7871094e-01   6.7382812e-01   6.6406250e-01   6.4941406e-01   6.3964844e-01   6.2988281e-01   6.1035156e-01   6.0058594e-01   5.8593750e-01   5.7617188e-01   5.6640625e-01   5.5664062e-01   5.4687500e-01   5.3710938e-01   5.2734375e-01   5.1757812e-01   5.0781250e-01   4.9804688e-01   4.9316406e-01   4.8339844e-01   4.7851562e-01   4.6875000e-01   4.5898438e-01   4.5410156e-01   4.4433594e-01   4.3945312e-01   4.2968750e-01   4.2480469e-01   4.1992188e-01   4.1503906e-01   4.1015625e-01   4.1503906e-01   4.1992188e-01   4.2968750e-01   4.4433594e-01   4.6875000e-01   4.8828125e-01   5.1269531e-01   5.4687500e-01   5.7128906e-01   6.0058594e-01   6.2011719e-01   6.4941406e-01   6.7871094e-01   7.0312500e-01   7.2265625e-01   7.4218750e-01   7.5683594e-01   7.7636719e-01   7.9101562e-01   8.0078125e-01   8.1054688e-01   8.1542969e-01   8.1542969e-01   8.2031250e-01   8.1542969e-01   8.1542969e-01   8.1542969e-01   8.0566406e-01   8.0078125e-01   7.9589844e-01   7.8613281e-01   7.7636719e-01   7.7148438e-01   7.6171875e-01   7.5683594e-01   7.4707031e-01   7.3730469e-01   7.3730469e-01   7.2265625e-01   7.0800781e-01   7.0312500e-01   6.8847656e-01   6.7871094e-01   6.7382812e-01   6.5917969e-01   6.4941406e-01   6.3476562e-01   6.2500000e-01   6.1035156e-01   5.9570312e-01   5.8105469e-01   5.7128906e-01   5.5664062e-01   5.4687500e-01   5.3222656e-01   5.2246094e-01   5.1269531e-01   5.0292969e-01   4.9316406e-01   4.8339844e-01   4.7363281e-01   4.6386719e-01   4.5410156e-01   4.4921875e-01   4.3945312e-01   4.2968750e-01   4.2480469e-01   4.1992188e-01   4.1015625e-01   4.0039062e-01   3.9550781e-01   3.9062500e-01   3.9062500e-01   3.9062500e-01   3.9062500e-01   4.0527344e-01   4.1503906e-01   4.3945312e-01   4.6386719e-01   4.8828125e-01   5.1757812e-01   5.4199219e-01   5.7128906e-01   5.9570312e-01   6.2011719e-01   6.4453125e-01   6.7382812e-01   6.9824219e-01   7.1289062e-01   7.2753906e-01   7.5195312e-01   7.6171875e-01   7.7148438e-01   7.8613281e-01   7.8613281e-01   7.9101562e-01   7.9101562e-01   7.8613281e-01   7.9101562e-01   7.8613281e-01   7.8125000e-01   7.7636719e-01   7.6660156e-01   7.6171875e-01   7.5195312e-01   7.4218750e-01   7.3730469e-01   7.3242188e-01   7.2753906e-01   7.2265625e-01   7.0800781e-01   7.0312500e-01   6.9824219e-01   6.8359375e-01   6.7382812e-01   6.6894531e-01   6.5429688e-01   6.4941406e-01   6.2988281e-01   6.2011719e-01   6.1035156e-01   6.0058594e-01   5.9082031e-01   5.8105469e-01   5.6640625e-01   5.6152344e-01   5.5175781e-01   5.4199219e-01   5.3222656e-01   5.2246094e-01   5.1269531e-01   5.0292969e-01   4.9316406e-01   4.8339844e-01   4.7851562e-01   4.6875000e-01   4.6386719e-01   4.5410156e-01   4.4433594e-01   4.4433594e-01   4.3457031e-01   4.2968750e-01   4.2480469e-01   4.1503906e-01   4.1015625e-01   4.1015625e-01   4.0527344e-01   4.1503906e-01   4.2480469e-01   4.4433594e-01   4.5898438e-01   4.8339844e-01   5.0781250e-01   5.2734375e-01   5.5664062e-01   5.7617188e-01   6.0058594e-01   6.2500000e-01   6.4941406e-01   6.6894531e-01   6.8847656e-01   7.0800781e-01   7.2265625e-01   7.3242188e-01   7.4218750e-01   7.5195312e-01   7.5683594e-01   7.6660156e-01   7.6171875e-01   7.6171875e-01   7.6660156e-01   7.5683594e-01   7.6171875e-01   7.6171875e-01   7.5195312e-01   7.5195312e-01   7.4707031e-01   7.3730469e-01   7.3242188e-01   7.2753906e-01   7.1777344e-01   7.1289062e-01   7.0800781e-01   6.9335938e-01   6.8847656e-01   6.7871094e-01   6.6894531e-01   6.5917969e-01   6.4453125e-01   6.3964844e-01   6.2988281e-01   6.1523438e-01   6.1035156e-01   6.0058594e-01   5.8593750e-01   5.8105469e-01   5.7128906e-01   5.5664062e-01   5.5175781e-01   5.3710938e-01   5.2734375e-01   5.1269531e-01   5.0292969e-01   4.9804688e-01   4.8828125e-01   4.7851562e-01   4.7363281e-01   4.6875000e-01   4.5410156e-01   4.5410156e-01   4.4433594e-01   4.3945312e-01   4.2968750e-01   4.2480469e-01   4.1992188e-01   4.1992188e-01   4.1503906e-01   4.1503906e-01   4.1992188e-01   4.2968750e-01   4.3945312e-01   4.5898438e-01   4.7851562e-01   5.0292969e-01   5.2734375e-01   5.5175781e-01   5.8105469e-01   6.0058594e-01   6.2988281e-01   6.5429688e-01   6.7871094e-01   7.0312500e-01   7.1777344e-01   7.3730469e-01   7.5195312e-01   7.6660156e-01   7.7636719e-01   7.8613281e-01   7.9589844e-01   8.0078125e-01   8.0078125e-01   7.9589844e-01   8.0078125e-01   7.9589844e-01   7.9589844e-01   7.9101562e-01   7.8613281e-01   7.8613281e-01   7.8613281e-01   7.7148438e-01   7.6660156e-01   7.6660156e-01   7.5195312e-01   7.4707031e-01   7.3730469e-01   7.2753906e-01   7.1777344e-01   7.0800781e-01   6.9335938e-01   6.8847656e-01   6.7382812e-01   6.6406250e-01   6.5917969e-01   6.4453125e-01   6.3964844e-01   6.2500000e-01   6.1523438e-01   6.1035156e-01   5.9570312e-01   5.8593750e-01   5.7617188e-01   5.6640625e-01   5.5664062e-01   5.5175781e-01   5.3710938e-01   5.2734375e-01   5.2246094e-01   5.0781250e-01   5.0292969e-01   4.9316406e-01   4.8339844e-01   4.7363281e-01   4.6875000e-01   4.5898438e-01   4.5410156e-01   4.4433594e-01   4.3457031e-01   4.2480469e-01   4.1992188e-01   4.1992188e-01   4.2480469e-01   4.1992188e-01   4.3457031e-01   4.5410156e-01   4.6875000e-01   4.9316406e-01   5.1269531e-01   5.4199219e-01   5.7617188e-01   5.9570312e-01   6.2500000e-01   6.4453125e-01   6.6894531e-01   6.9335938e-01   7.0800781e-01   7.2753906e-01   7.4707031e-01   7.6660156e-01   7.7636719e-01   7.9101562e-01   8.0078125e-01   8.0566406e-01   8.1054688e-01   8.1542969e-01   8.1054688e-01   8.0566406e-01   8.0566406e-01   8.0566406e-01   7.9589844e-01   7.9101562e-01   7.8613281e-01   7.8125000e-01   7.7148438e-01   7.6171875e-01   7.5195312e-01   7.4218750e-01   7.3730469e-01   7.2265625e-01   7.1777344e-01   7.0800781e-01   6.9335938e-01   6.8359375e-01   6.7382812e-01   6.6406250e-01   6.5429688e-01   6.3964844e-01   6.2988281e-01   6.2500000e-01   6.1035156e-01   6.0058594e-01   5.9082031e-01   5.7617188e-01   5.7128906e-01   5.6152344e-01   5.4687500e-01   5.3710938e-01   5.2734375e-01   5.2246094e-01   5.1269531e-01   5.0292969e-01   4.8828125e-01   4.8828125e-01   4.7363281e-01   4.6386719e-01   4.6386719e-01   4.4921875e-01   4.4433594e-01   4.3457031e-01   4.2480469e-01   4.2480469e-01   4.1015625e-01   4.1015625e-01   4.1015625e-01   4.0039062e-01   4.0527344e-01   4.1015625e-01   4.2480469e-01   4.4433594e-01   4.6386719e-01   4.8828125e-01   5.1757812e-01   5.4199219e-01   5.6640625e-01   5.9082031e-01   6.1523438e-01   6.3964844e-01   6.6406250e-01   6.8847656e-01   7.0800781e-01   7.2753906e-01   7.4218750e-01   7.6171875e-01   7.7636719e-01   7.8125000e-01   7.9589844e-01   7.9101562e-01   7.9101562e-01   7.9589844e-01   7.9101562e-01   7.8125000e-01   7.8125000e-01   7.7148438e-01   7.6660156e-01   7.6171875e-01   7.5683594e-01   7.4707031e-01   7.4218750e-01   7.3242188e-01   7.3242188e-01   7.1777344e-01   7.0800781e-01   6.9335938e-01   6.8359375e-01   6.7382812e-01   6.5917969e-01   6.4941406e-01   6.3964844e-01   6.2988281e-01   6.1523438e-01   6.0546875e-01   5.9570312e-01   5.8593750e-01   5.8105469e-01   5.7128906e-01   5.6640625e-01   5.6152344e-01   5.4687500e-01   5.4199219e-01   5.3222656e-01   5.2734375e-01   5.2246094e-01   5.1269531e-01   4.9804688e-01   4.9316406e-01   4.7851562e-01   4.7363281e-01   4.6875000e-01   4.5898438e-01   4.5410156e-01   4.4433594e-01   4.3457031e-01   4.2968750e-01   4.1992188e-01   4.1503906e-01   4.1992188e-01   4.1992188e-01   4.1992188e-01   4.2480469e-01   4.3457031e-01   4.5410156e-01   4.6875000e-01   4.9316406e-01   5.1757812e-01   5.4687500e-01   5.6640625e-01   5.9082031e-01   6.1523438e-01   6.3476562e-01   6.6406250e-01   6.8359375e-01   6.9824219e-01   7.2265625e-01   7.3242188e-01   7.4707031e-01   7.5683594e-01   7.5683594e-01   7.6171875e-01   7.6171875e-01   7.6171875e-01   7.6171875e-01   7.6171875e-01   7.5683594e-01   7.5683594e-01   7.4707031e-01   7.4707031e-01   7.4218750e-01   7.3242188e-01   7.2753906e-01   7.2265625e-01   7.1289062e-01   7.0800781e-01   6.9824219e-01   6.9335938e-01   6.8359375e-01   6.7382812e-01   6.6406250e-01   6.5917969e-01   6.4453125e-01   6.3476562e-01   6.2988281e-01   6.1523438e-01   6.0058594e-01   5.9082031e-01   5.7617188e-01   5.7128906e-01   5.5664062e-01   5.5175781e-01   5.4199219e-01   5.2734375e-01   5.1757812e-01   5.1757812e-01   5.0292969e-01   4.9316406e-01   4.8339844e-01   4.7363281e-01   4.6875000e-01   4.5898438e-01   4.5410156e-01   4.4921875e-01   4.4433594e-01   4.3457031e-01   4.2968750e-01   4.2480469e-01   4.1503906e-01   4.0527344e-01   4.0039062e-01   3.9550781e-01   3.9550781e-01   4.0039062e-01   4.1015625e-01   4.2480469e-01   4.4433594e-01   4.6875000e-01   4.8828125e-01   5.1757812e-01   5.5175781e-01   5.7128906e-01   5.9570312e-01   6.2988281e-01   6.4941406e-01   6.7382812e-01   6.9335938e-01   7.1289062e-01   7.3730469e-01   7.4707031e-01   7.5683594e-01   7.7636719e-01   7.8125000e-01   7.8613281e-01   7.9101562e-01   7.8613281e-01   7.8613281e-01   7.8125000e-01   7.8125000e-01   7.8125000e-01   7.7636719e-01   7.7148438e-01   7.6660156e-01   7.5683594e-01   7.5195312e-01   7.4707031e-01   7.3730469e-01   7.3242188e-01   7.2265625e-01   7.1289062e-01   7.0312500e-01   6.9824219e-01   6.8359375e-01   6.7871094e-01   6.6894531e-01   6.5917969e-01   6.4941406e-01   6.3476562e-01   6.2988281e-01   6.1523438e-01   6.0058594e-01   5.9570312e-01   5.8105469e-01   5.7128906e-01   5.6152344e-01   5.4687500e-01   5.4199219e-01   5.3222656e-01   5.2246094e-01   5.1269531e-01   5.0781250e-01   4.9316406e-01   4.8828125e-01   4.7851562e-01   4.6875000e-01   4.6386719e-01   4.5898438e-01   4.4921875e-01   4.4433594e-01   4.3457031e-01   4.2968750e-01   4.2968750e-01   4.2480469e-01   4.1992188e-01   4.1992188e-01   4.2480469e-01   4.3457031e-01   4.4921875e-01   4.6386719e-01   4.9316406e-01   5.1269531e-01   5.4199219e-01   5.6640625e-01   5.9082031e-01   6.2011719e-01   6.4941406e-01   6.7382812e-01   6.9824219e-01   7.1289062e-01   7.3730469e-01   7.5195312e-01   7.7148438e-01   7.8613281e-01   8.0078125e-01   8.0566406e-01   8.1054688e-01   8.1542969e-01   8.1542969e-01   8.1054688e-01   8.0566406e-01   8.0566406e-01   7.9589844e-01   7.9101562e-01   7.8613281e-01   7.7636719e-01   7.7148438e-01   7.6660156e-01   7.6660156e-01   7.5195312e-01   7.5195312e-01   7.4707031e-01   7.3242188e-01   7.2265625e-01   7.1289062e-01   7.0312500e-01   6.9824219e-01   6.8847656e-01   6.7382812e-01   6.6894531e-01   6.5429688e-01   6.4453125e-01   6.3964844e-01   6.2988281e-01   6.1523438e-01   6.0058594e-01   5.9082031e-01   5.8593750e-01   5.7128906e-01   5.6152344e-01   5.5175781e-01   5.3710938e-01   5.3222656e-01   5.2246094e-01   5.1269531e-01   4.9804688e-01   4.9316406e-01   4.8339844e-01   4.7363281e-01   4.6875000e-01   4.6386719e-01   4.5410156e-01   4.4433594e-01   4.3945312e-01   4.3945312e-01   4.2968750e-01   4.1992188e-01   4.2480469e-01   4.2480469e-01   4.2968750e-01   4.3945312e-01   4.5898438e-01   4.7851562e-01   5.0292969e-01   5.2734375e-01   5.5664062e-01   5.8105469e-01   6.0546875e-01   6.2988281e-01   6.5429688e-01   6.7871094e-01   7.0312500e-01   7.1777344e-01   7.3242188e-01   7.4707031e-01   7.6171875e-01   7.7148438e-01   7.8613281e-01   7.9101562e-01   7.9589844e-01   7.9589844e-01   8.0078125e-01   7.9589844e-01   7.9101562e-01   7.9101562e-01   7.8613281e-01   7.7636719e-01   7.7636719e-01   7.6660156e-01   7.6171875e-01   7.5195312e-01   7.4218750e-01   7.3730469e-01   7.2753906e-01   7.1777344e-01   7.0800781e-01   6.9824219e-01   6.8847656e-01   6.7871094e-01   6.6894531e-01   6.5917969e-01   6.5429688e-01   6.4453125e-01   6.2988281e-01   6.2500000e-01   6.1035156e-01   6.0058594e-01   5.9570312e-01   5.8105469e-01   5.7128906e-01   5.5664062e-01   5.4687500e-01   5.3222656e-01   5.2246094e-01   5.1269531e-01   5.0292969e-01   4.9804688e-01   4.9316406e-01   4.8828125e-01   4.7851562e-01   4.7363281e-01   4.6386719e-01   4.5410156e-01   4.4921875e-01   4.4921875e-01   4.3457031e-01   4.2968750e-01   4.2480469e-01   4.1503906e-01   4.1992188e-01   4.1015625e-01   4.1015625e-01   4.1503906e-01   4.2480469e-01   4.3945312e-01   4.5898438e-01   4.7851562e-01   5.0292969e-01   5.2246094e-01   5.4687500e-01   5.7128906e-01   6.0058594e-01   6.2011719e-01   6.4453125e-01   6.6406250e-01   6.8359375e-01   7.0312500e-01   7.1777344e-01   7.3730469e-01   7.4707031e-01   7.5195312e-01   7.6171875e-01   7.7148438e-01   7.6660156e-01   7.7636719e-01   7.7148438e-01   7.6660156e-01   7.6660156e-01   7.5683594e-01   7.5195312e-01   7.4218750e-01   7.3730469e-01   7.3730469e-01   7.2753906e-01   7.2265625e-01   7.1289062e-01   7.0312500e-01   6.9824219e-01   6.9335938e-01   6.8359375e-01   6.7382812e-01   6.6406250e-01   6.4941406e-01   6.3964844e-01   6.3476562e-01   6.2500000e-01   6.1523438e-01   6.0546875e-01   