   3.7597656e-01   3.4179688e-01   3.0761719e-01   2.7343750e-01   2.4902344e-01   2.2949219e-01   2.0507812e-01   1.9042969e-01   1.7089844e-01   1.6113281e-01   1.5136719e-01   1.3183594e-01   1.2695312e-01   1.2207031e-01   1.1230469e-01   1.0253906e-01   9.7656250e-02   9.2773438e-02   9.2773438e-02   8.7890625e-02   8.7890625e-02   8.3007812e-02   8.3007812e-02   7.8125000e-02   7.8125000e-02   7.3242188e-02   7.3242188e-02   8.3007812e-02   8.7890625e-02   1.0253906e-01   1.2695312e-01   1.6113281e-01   1.9042969e-01   2.2949219e-01   2.7832031e-01   3.1738281e-01   3.5156250e-01   3.9062500e-01   4.1992188e-01   4.4921875e-01   4.7363281e-01   4.9316406e-01   5.0781250e-01   5.1757812e-01   5.2246094e-01   5.2734375e-01   5.3222656e-01   5.2734375e-01   5.2734375e-01   5.2246094e-01   5.1269531e-01   5.0292969e-01   4.8828125e-01   4.7363281e-01   4.6386719e-01   4.4921875e-01   4.3457031e-01   4.2480469e-01   4.1992188e-01   4.1015625e-01   4.0527344e-01   4.0527344e-01   3.9550781e-01   3.9062500e-01   3.9062500e-01   3.9062500e-01   3.8574219e-01   3.8574219e-01   3.7597656e-01   3.7597656e-01   3.6621094e-01   3.6132812e-01   3.5156250e-01   3.4179688e-01   3.3203125e-01   3.2714844e-01   3.1738281e-01   3.0761719e-01   2.9785156e-01   2.8320312e-01   2.7343750e-01   2.6367188e-01   2.5390625e-01   2.3925781e-01   2.2949219e-01   2.2460938e-01   2.1484375e-01   2.0507812e-01   2.0019531e-01   1.9531250e-01   1.9042969e-01   1.8066406e-01   1.8066406e-01   1.7578125e-01   1.7089844e-01   1.7089844e-01   1.7089844e-01   1.6601562e-01   1.6113281e-01   1.6113281e-01   1.6113281e-01   1.5625000e-01   1.5625000e-01   1.6601562e-01   1.8066406e-01   2.0019531e-01   2.2949219e-01   2.5878906e-01   3.0273438e-01   3.4179688e-01   3.7597656e-01   4.1503906e-01   4.4921875e-01   4.7363281e-01   4.9316406e-01   5.1269531e-01   5.2734375e-01   5.3710938e-01   5.4199219e-01   5.5175781e-01   5.4687500e-01   5.4687500e-01   5.4687500e-01   5.3710938e-01   5.2734375e-01   5.1757812e-01   5.0292969e-01   4.8828125e-01   4.7363281e-01   4.6386719e-01   4.4921875e-01   4.3945312e-01   4.2968750e-01   4.1503906e-01   4.1015625e-01   4.0527344e-01   3.9550781e-01   3.9550781e-01   3.9550781e-01   3.9062500e-01   3.9062500e-01   3.8574219e-01   3.8574219e-01   3.8085938e-01   3.7597656e-01   3.7109375e-01   3.6621094e-01   3.5644531e-01   3.5156250e-01   3.4179688e-01   3.3203125e-01   3.2226562e-01   3.0761719e-01   2.9785156e-01   2.8808594e-01   2.7343750e-01   2.6367188e-01   2.5390625e-01   2.4414062e-01   2.3437500e-01   2.2949219e-01   2.1972656e-01   2.0996094e-01   2.0507812e-01   1.9531250e-01   1.9531250e-01   1.9042969e-01   1.8554688e-01   1.8066406e-01   1.7578125e-01   1.7578125e-01   1.7089844e-01   1.6601562e-01   1.6601562e-01   1.7089844e-01   1.6113281e-01   1.6113281e-01   1.6601562e-01   1.7578125e-01   1.8554688e-01   2.0996094e-01   2.3925781e-01   2.6855469e-01   3.1250000e-01   3.5156250e-01   3.9550781e-01   4.3457031e-01   4.6875000e-01   4.9804688e-01   5.2246094e-01   5.4199219e-01   5.5664062e-01   5.7128906e-01   5.8105469e-01   5.8593750e-01   5.8593750e-01   5.8593750e-01   5.8593750e-01   5.7617188e-01   5.7128906e-01   5.6152344e-01   5.5175781e-01   5.3710938e-01   5.2246094e-01   5.1269531e-01   5.0292969e-01   4.8828125e-01   4.7363281e-01   4.6386719e-01   4.5410156e-01   4.4921875e-01   4.3945312e-01   4.3457031e-01   4.3457031e-01   4.2968750e-01   4.2480469e-01   4.2480469e-01   4.1992188e-01   4.1503906e-01   4.0527344e-01   4.0039062e-01   3.9550781e-01   3.8574219e-01   3.7597656e-01   3.7597656e-01   3.6621094e-01   3.5644531e-01   3.4667969e-01   3.3203125e-01   3.2714844e-01   3.1250000e-01   3.0273438e-01   2.9296875e-01   2.7832031e-01   2.6855469e-01   2.6367188e-01   2.4902344e-01   2.4414062e-01   2.4414062e-01   2.3437500e-01   2.1972656e-01   2.1484375e-01   2.0996094e-01   2.0019531e-01   2.0019531e-01   1.9531250e-01   1.9042969e-01   1.8554688e-01   1.8554688e-01   1.8066406e-01   1.7578125e-01   1.7578125e-01   1.7578125e-01   1.7578125e-01   1.8066406e-01   1.9531250e-01   2.0996094e-01   2.3925781e-01   2.7343750e-01   3.0761719e-01   3.5156250e-01   3.9062500e-01   4.3457031e-01   4.7363281e-01   5.0292969e-01   5.2246094e-01   5.4687500e-01   5.6152344e-01   5.7128906e-01   5.8593750e-01   5.9082031e-01   5.9082031e-01   5.9082031e-01   5.9082031e-01   5.9082031e-01   5.8105469e-01   5.7128906e-01   5.6152344e-01   5.4687500e-01   5.3222656e-01   5.2246094e-01   5.0781250e-01   4.9316406e-01   4.7851562e-01   4.6875000e-01   4.5898438e-01   4.5410156e-01   4.4433594e-01   4.4433594e-01   4.3945312e-01   4.3457031e-01   4.2968750e-01   4.2968750e-01   4.2480469e-01   4.1992188e-01   4.1503906e-01   4.0527344e-01   4.0039062e-01   3.9062500e-01   3.8085938e-01   3.7597656e-01   3.6621094e-01   3.5644531e-01   3.4667969e-01   3.3691406e-01   3.2226562e-01   3.1250000e-01   3.0273438e-01   2.9296875e-01   2.8320312e-01   2.6855469e-01   2.5878906e-01   2.4902344e-01   2.3925781e-01   2.3437500e-01   2.2949219e-01   2.1972656e-01   2.1484375e-01   2.0996094e-01   2.0507812e-01   2.0019531e-01   2.0019531e-01   1.9531250e-01   1.9042969e-01   1.9042969e-01   1.8554688e-01   1.8066406e-01   1.8066406e-01   1.7578125e-01   1.8066406e-01   1.8554688e-01   1.9042969e-01   2.0507812e-01   2.2949219e-01   2.5878906e-01   2.8808594e-01   3.2714844e-01   3.6621094e-01   4.1015625e-01   4.4433594e-01   4.7363281e-01   5.0292969e-01   5.2246094e-01   5.4199219e-01   5.5175781e-01   5.6152344e-01   5.6640625e-01   5.7128906e-01   5.7128906e-01   5.7128906e-01   5.6640625e-01   5.6152344e-01   5.5175781e-01   5.3710938e-01   5.2734375e-01   5.1269531e-01   4.9804688e-01   4.8828125e-01   4.7363281e-01   4.6386719e-01   4.5410156e-01   4.4433594e-01   4.3945312e-01   4.3457031e-01   4.3457031e-01   4.3457031e-01   4.3457031e-01   4.3457031e-01   4.3457031e-01   4.2968750e-01   4.2968750e-01   4.1992188e-01   4.1503906e-01   4.1015625e-01   4.0527344e-01   3.9550781e-01   3.8574219e-01   3.7597656e-01   3.6621094e-01   3.5156250e-01   3.4667969e-01   3.3691406e-01   3.2714844e-01   3.1738281e-01   3.0761719e-01   2.9296875e-01   2.8320312e-01   2.7343750e-01   2.6367188e-01   2.6367188e-01   2.5390625e-01   2.4902344e-01   2.3925781e-01   2.3437500e-01   2.3437500e-01   2.2949219e-01   2.2460938e-01   2.1972656e-01   2.1484375e-01   2.0996094e-01   2.0996094e-01   2.0507812e-01   2.0996094e-01   2.0996094e-01   2.1484375e-01   2.2949219e-01   2.4902344e-01   2.6855469e-01   3.0273438e-01   3.3691406e-01   3.8085938e-01   4.1503906e-01   4.4433594e-01   4.7851562e-01   4.9804688e-01   5.1757812e-01   5.3710938e-01   5.5175781e-01   5.6152344e-01   5.6152344e-01   5.6640625e-01   5.6640625e-01   5.6152344e-01   5.6152344e-01   5.5175781e-01   5.4199219e-01   5.2734375e-01   5.1757812e-01   4.9804688e-01   4.8828125e-01   4.7363281e-01   4.6386719e-01   4.4921875e-01   4.4433594e-01   4.3945312e-01   4.2968750e-01   4.2968750e-01   4.2968750e-01   4.2480469e-01   4.2480469e-01   4.2968750e-01   4.2968750e-01   4.2480469e-01   4.2968750e-01   4.2480469e-01   4.1503906e-01   4.1503906e-01   4.0527344e-01   3.9550781e-01   3.8085938e-01   3.7597656e-01   3.6621094e-01   3.5644531e-01   3.4667969e-01   3.3203125e-01   3.2226562e-01   3.1738281e-01   3.0273438e-01   2.9296875e-01   2.8320312e-01   2.7343750e-01   2.6855469e-01   2.5878906e-01   2.5390625e-01   2.4902344e-01   2.3925781e-01   2.3437500e-01   2.3437500e-01   2.2949219e-01   2.2949219e-01   2.2460938e-01   2.1972656e-01   2.2460938e-01   2.1484375e-01   2.1972656e-01   2.1484375e-01   2.1972656e-01   2.2949219e-01   2.4902344e-01   2.7343750e-01   3.0273438e-01   3.3691406e-01   3.7109375e-01   4.1015625e-01   4.3945312e-01   4.7851562e-01   5.0781250e-01   5.2734375e-01   5.4687500e-01   5.6152344e-01   5.7617188e-01   5.8593750e-01   5.9082031e-01   5.9570312e-01   5.9570312e-01   5.9570312e-01   5.9082031e-01   5.9082031e-01   5.8105469e-01   5.7128906e-01   5.6152344e-01   5.5175781e-01   5.4199219e-01   5.2734375e-01   5.1757812e-01   5.0292969e-01   4.9316406e-01   4.8339844e-01   4.7851562e-01   4.7363281e-01   4.6875000e-01   4.6875000e-01   4.6386719e-01   4.5898438e-01   4.5898438e-01   4.5410156e-01   4.4921875e-01   4.4433594e-01   4.3945312e-01   4.2968750e-01   4.2480469e-01   4.2480469e-01   4.1503906e-01   4.0527344e-01   3.9550781e-01   3.8574219e-01   3.7109375e-01   3.6132812e-01   3.5156250e-01   3.4179688e-01   3.3203125e-01   3.2226562e-01   3.1250000e-01   3.0761719e-01   2.9785156e-01   2.8808594e-01   2.8320312e-01   2.7832031e-01   2.7343750e-01   2.7343750e-01   2.6367188e-01   2.6367188e-01   2.5390625e-01   2.5390625e-01   2.4902344e-01   2.4414062e-01   2.4414062e-01   2.3925781e-01   2.3925781e-01   2.4414062e-01   2.4414062e-01   2.6367188e-01   2.7832031e-01   2.9785156e-01   3.3203125e-01   3.6621094e-01   3.9550781e-01   4.2968750e-01   4.5898438e-01   4.8828125e-01   5.1269531e-01   5.3222656e-01   5.4687500e-01   5.6152344e-01   5.7128906e-01   5.8105469e-01   5.8593750e-01   5.9082031e-01   5.9082031e-01   5.9082031e-01   5.8593750e-01   5.8105469e-01   5.7617188e-01   5.6640625e-01   5.5664062e-01   5.4687500e-01   5.3710938e-01   5.2246094e-01   5.1269531e-01   5.0292969e-01   4.9804688e-01   4.8828125e-01   4.8339844e-01   4.7851562e-01   4.7363281e-01   4.7851562e-01   4.7363281e-01   4.6875000e-01   4.5898438e-01   4.5410156e-01   4.5410156e-01   4.4433594e-01   4.3945312e-01   4.3457031e-01   4.2480469e-01   4.1015625e-01   4.0039062e-01   3.8574219e-01   3.7597656e-01   3.6621094e-01   3.5644531e-01   3.4179688e-01   3.3203125e-01   3.1738281e-01   3.0761719e-01   2.9296875e-01   2.8808594e-01   2.7832031e-01   2.7343750e-01   2.6367188e-01   2.5878906e-01   2.5390625e-01   2.4902344e-01   2.4902344e-01   2.4414062e-01   2.3925781e-01   2.3437500e-01   2.3437500e-01   2.3437500e-01   2.3437500e-01   2.2949219e-01   2.2460938e-01   2.2949219e-01   2.2949219e-01   2.3925781e-01   2.3925781e-01   2.4902344e-01   2.6855469e-01   2.8808594e-01   3.2226562e-01   3.5644531e-01   3.9062500e-01   4.2480469e-01   4.4921875e-01   4.7851562e-01   5.0292969e-01   5.2246094e-01   5.3222656e-01   5.4687500e-01   5.5664062e-01   5.6640625e-01   5.7128906e-01   5.7617188e-01   5.7617188e-01   5.7617188e-01   5.7128906e-01   5.6640625e-01   5.5664062e-01   5.4687500e-01   5.3710938e-01   5.2734375e-01   5.1269531e-01   5.0781250e-01   4.9316406e-01   4.8339844e-01   4.7363281e-01   4.6386719e-01   4.5898438e-01   4.5410156e-01   4.4921875e-01   4.4433594e-01   4.4433594e-01   4.3945312e-01   4.3457031e-01   4.3457031e-01   4.2480469e-01   4.2480469e-01   4.1992188e-01   4.1015625e-01   4.0527344e-01   3.9550781e-01   3.8574219e-01   3.7597656e-01   3.6621094e-01   3.5644531e-01   3.4667969e-01   3.3691406e-01   3.2714844e-01   3.1738281e-01   3.0761719e-01   2.9785156e-01   2.8808594e-01   2.8320312e-01   2.8320312e-01   2.7343750e-01   2.7343750e-01   2.6855469e-01   2.6367188e-01   2.5878906e-01   2.5878906e-01   2.5390625e-01   2.4902344e-01   2.4902344e-01   2.4414062e-01   2.3925781e-01   2.3925781e-01   2.3925781e-01   2.3925781e-01   2.4902344e-01   2.5878906e-01   2.7832031e-01   2.9785156e-01   3.2714844e-01   3.5644531e-01   3.8574219e-01   4.1503906e-01   4.4433594e-01   4.6875000e-01   4.9316406e-01   5.0781250e-01   5.2246094e-01   5.3222656e-01   5.4199219e-01   5.4687500e-01   5.5175781e-01   5.5664062e-01   5.5664062e-01   5.5664062e-01   5.5175781e-01   5.4199219e-01   5.3710938e-01   5.2246094e-01   5.1269531e-01   5.0292969e-01   4.9316406e-01   4.8339844e-01   4.7363281e-01   4.6875000e-01   4.6386719e-01   4.5410156e-01   4.5410156e-01   4.4921875e-01   4.4433594e-01   4.4433594e-01   4.3945312e-01   4.3945312e-01   4.3457031e-01   4.2968750e-01   4.2480469e-01   4.1992188e-01   4.1015625e-01   4.1015625e-01   4.0039062e-01   3.9550781e-01   3.9062500e-01   3.8085938e-01   3.7597656e-01   3.6621094e-01   3.5644531e-01   3.5156250e-01   3.3691406e-01   3.3203125e-01   3.2714844e-01   3.1738281e-01   3.1250000e-01   3.1250000e-01   3.0273438e-01   3.0273438e-01   2.9785156e-01   2.9296875e-01   2.9296875e-01   2.8808594e-01   2.8808594e-01   2.9785156e-01   2.8808594e-01   2.8320312e-01   2.8808594e-01   2.8320312e-01   2.8320312e-01   2.7832031e-01   2.7343750e-01   2.7343750e-01   2.7832031e-01   2.8808594e-01   3.1738281e-01   3.4179688e-01   3.7109375e-01   3.9550781e-01   4.2480469e-01   4.5410156e-01   4.7851562e-01   5.0292969e-01   5.2246094e-01   5.3710938e-01   5.5175781e-01   5.5664062e-01   5.7128906e-01   5.7617188e-01   5.7617188e-01   5.8593750e-01   5.8105469e-01   5.8105469e-01   5.8105469e-01   5.7128906e-01   5.6640625e-01   5.5664062e-01   5.5175781e-01   5.3710938e-01   5.2734375e-01   5.1269531e-01   5.0781250e-01   4.9804688e-01   4.8828125e-01   4.8828125e-01   4.7851562e-01   4.7851562e-01   4.7363281e-01   4.6875000e-01   4.6386719e-01   4.5898438e-01   4.5410156e-01   4.4921875e-01   4.4433594e-01   4.3457031e-01   4.2480469e-01   4.1992188e-01   4.1015625e-01   4.0527344e-01   3.9062500e-01   3.8574219e-01   3.7597656e-01   3.7109375e-01   3.5644531e-01   3.4667969e-01   3.3691406e-01   3.2714844e-01   3.1738281e-01   3.0761719e-01   3.0273438e-01   2.9296875e-01   2.8808594e-01   2.7832031e-01   2.7832031e-01   2.7343750e-01   2.6855469e-01   2.6855469e-01   2.5878906e-01   2.5878906e-01   2.5878906e-01   2.5390625e-01   2.5390625e-01   2.4902344e-01   2.4902344e-01   2.4902344e-01   2.4414062e-01   2.4414062e-01   2.4414062e-01   2.4414062e-01   2.5390625e-01   2.6855469e-01   2.8808594e-01   3.1738281e-01   3.4179688e-01   3.8085938e-01   4.0527344e-01   4.3457031e-01   4.6386719e-01   4.8828125e-01   5.0292969e-01   5.2734375e-01   5.4199219e-01   5.5664062e-01   5.6152344e-01   5.7128906e-01   5.7617188e-01   5.7617188e-01   5.7617188e-01   5.7617188e-01   5.7128906e-01   5.6640625e-01   5.5175781e-01   5.4199219e-01   5.3222656e-01   5.2246094e-01   5.1269531e-01   5.0292969e-01   4.8828125e-01   4.8339844e-01   4.7363281e-01   4.6875000e-01   4.5898438e-01   4.5898438e-01   4.4921875e-01   4.4433594e-01   4.4433594e-01   4.3945312e-01   4.2968750e-01   4.2480469e-01   4.1992188e-01   4.1015625e-01   4.0039062e-01   3.9550781e-01   3.8574219e-01   3.8085938e-01   3.6621094e-01   3.5644531e-01   3.5156250e-01   3.3691406e-01   3.2714844e-01   3.1738281e-01   3.0761719e-01   2.9785156e-01   2.8808594e-01   2.7343750e-01   2.6855469e-01   2.6367188e-01   2.5390625e-01   2.4902344e-01   2.3925781e-01   2.3925781e-01   2.3437500e-01   2.2949219e-01   2.2949219e-01   2.2949219e-01   2.2460938e-01   2.2460938e-01   2.2460938e-01   2.1972656e-01   2.1972656e-01   2.0996094e-01   2.1484375e-01   2.0996094e-01   2.0507812e-01   2.0996094e-01   2.0996094e-01   2.1972656e-01   2.3437500e-01   2.5878906e-01   2.8320312e-01   3.1738281e-01   3.5156250e-01   3.8574219e-01   4.1503906e-01   4.3945312e-01   4.6386719e-01   4.8339844e-01   5.0292969e-01   5.1269531e-01   5.2246094e-01   5.3222656e-01   5.3222656e-01   5.3710938e-01   5.3710938e-01   5.3710938e-01   5.3222656e-01   5.2246094e-01   5.1757812e-01   5.1269531e-01   4.9804688e-01   4.8339844e-01   4.7363281e-01   4.6386719e-01   4.5410156e-01   4.4433594e-01   4.3945312e-01   4.2968750e-01   4.2480469e-01   4.2480469e-01   4.2480469e-01   4.1992188e-01   4.1992188e-01   4.1503906e-01   4.1015625e-01   4.0527344e-01   4.0527344e-01   3.9550781e-01   3.9062500e-01   3.8085938e-01   3.7597656e-01   3.6621094e-01   3.6132812e-01   3.5644531e-01   3.4667969e-01   3.4179688e-01   3.3203125e-01   3.1738281e-01   3.0761719e-01   3.0273438e-01   2.9296875e-01   2.8320312e-01   2.7343750e-01   2.6367188e-01   2.5878906e-01   2.4902344e-01   2.4902344e-01   2.3925781e-01   2.3925781e-01   2.3437500e-01   2.2460938e-01   2.2460938e-01   2.2460938e-01   2.1972656e-01   2.1484375e-01   2.0996094e-01   2.1484375e-01   2.0996094e-01   2.0507812e-01   2.0507812e-01   2.0019531e-01   2.0996094e-01   2.2949219e-01   2.5390625e-01   2.7832031e-01   3.1738281e-01   3.5644531e-01   3.9550781e-01   4.2480469e-01   4.5898438e-01   4.8828125e-01   5.1269531e-01   5.3222656e-01   5.4687500e-01   5.6152344e-01   5.7128906e-01   5.8105469e-01   5.8105469e-01   5.8593750e-01   5.8593750e-01   5.8105469e-01   5.8105469e-01   5.7128906e-01   5.6152344e-01   5.5175781e-01   5.3710938e-01   5.2734375e-01   5.1269531e-01   5.0292969e-01   4.9316406e-01   4.8339844e-01   4.7363281e-01   4.6875000e-01   4.6386719e-01   4.5898438e-01   4.5410156e-01   4.5410156e-01   4.4921875e-01   4.4921875e-01   4.4921875e-01   4.4433594e-01   4.3457031e-01   4.2968750e-01   4.2480469e-01   4.1503906e-01   4.1015625e-01   4.0039062e-01   3.8574219e-01   3.7597656e-01   3.6621094e-01   3.6132812e-01   3.4667969e-01   3.3691406e-01   3.2714844e-01   3.1738281e-01   3.0273438e-01   2.9296875e-01   2.8808594e-01   2.7832031e-01   2.6855469e-01   2.6367188e-01   2.5878906e-01   2.5390625e-01   2.4902344e-01   2.4902344e-01   2.3925781e-01   2.3925781e-01   2.3437500e-01   2.3437500e-01   2.3437500e-01   2.2949219e-01   2.2460938e-01   2.1972656e-01   2.1972656e-01   2.1972656e-01   2.2460938e-01   2.3437500e-01   2.4902344e-01   2.7343750e-01   3.0273438e-01   3.3691406e-01   3.7109375e-01   4.1015625e-01   4.4433594e-01   4.7363281e-01   4.9804688e-01   5.1757812e-01   5.3710938e-01   5.5175781e-01   5.6152344e-01   5.7128906e-01   5.7617188e-01   5.8105469e-01   5.8105469e-01   5.8105469e-01   5.7617188e-01   5.7128906e-01   5.6152344e-01   5.5664062e-01   5.4199219e-01   5.3222656e-01   5.1757812e-01   5.0292969e-01   4.9804688e-01   4.8339844e-01   4.7363281e-01   4.7363281e-01   4.6386719e-01   4.5898438e-01   4.5898438e-01   4.5410156e-01   4.5410156e-01   4.4921875e-01   4.4433594e-01   4.3945312e-01   4.3457031e-01   4.2968750e-01   4.1992188e-01   4.1503906e-01   4.1015625e-01   4.0039062e-01   3.9062500e-01   3.8085938e-01   3.7109375e-01   3.6132812e-01   3.5156250e-01   3.4179688e-01   3.3203125e-01   3.2226562e-01   3.1738281e-01   3.0273438e-01   2.9785156e-01   2.8808594e-01   2.8320312e-01   2.7832031e-01   2.6855469e-01   2.6367188e-01   2.6367188e-01   2.5878906e-01   2.4902344e-01   2.4902344e-01   2.4414062e-01   2.4414062e-01   2.3925781e-01   2.3925781e-01   2.3437500e-01   2.3437500e-01   2.2949219e-01   2.2949219e-01   2.3925781e-01   2.4902344e-01   2.6367188e-01   2.8808594e-01   3.1738281e-01   3.5644531e-01   3.8574219e-01   4.1503906e-01   4.4433594e-01   4.6875000e-01   4.8828125e-01   5.0781250e-01   5.2246094e-01   5.3710938e-01   5.4199219e-01   5.5175781e-01   5.5175781e-01   5.5175781e-01   5.5175781e-01   5.5175781e-01   5.4199219e-01   5.3710938e-01   5.2246094e-01   5.1269531e-01   5.0292969e-01   4.8828125e-01   4.7851562e-01   4.7363281e-01   4.5898438e-01   4.5410156e-01   4.4433594e-01   4.4433594e-01   4.3945312e-01   4.3457031e-01   4.3457031e-01   4.3457031e-01   4.2480469e-01   4.2480469e-01   4.1992188e-01   4.1992188e-01   4.1503906e-01   4.0527344e-01   4.0039062e-01   3.9550781e-01   3.8574219e-01   3.7597656e-01   3.7109375e-01   3.6132812e-01   3.5156250e-01   3.3691406e-01   3.3203125e-01   3.2226562e-01   3.1250000e-01   3.0273438e-01   2.9296875e-01   2.8808594e-01   2.8320312e-01   2.7832031e-01   2.6855469e-01   2.6855469e-01   2.5878906e-01   2.5878906e-01   2.5878906e-01   2.4902344e-01   2.4902344e-01   2.4414062e-01   2.3925781e-01   2.3925781e-01   2.3437500e-01   2.3437500e-01   2.3437500e-01   2.3437500e-01   2.4414062e-01   2.5390625e-01   2.7832031e-01   3.0273438e-01   3.2714844e-01   3.6132812e-01   3.9062500e-01   4.2480469e-01   4.4921875e-01   4.7363281e-01   4.9804688e-01   5.1269531e-01   5.2246094e-01   5.3222656e-01   5.4199219e-01   5.4687500e-01   5.5175781e-01   5.5175781e-01   5.5175781e-01   5.4687500e-01   5.4199219e-01   5.3710938e-01   5.2734375e-01   5.1757812e-01   5.0781250e-01   4.9804688e-01   4.8339844e-01   4.7363281e-01   4.6386719e-01   4.5898438e-01   4.5410156e-01   4.4921875e-01   4.4433594e-01   4.4433594e-01   4.3945312e-01   4.3457031e-01   4.3457031e-01   4.2968750e-01   4.2968750e-01   4.1992188e-01   4.1992188e-01   4.1503906e-01   4.0527344e-01   4.0527344e-01   3.9062500e-01   3.8085938e-01   3.7597656e-01   3.6621094e-01   3.5644531e-01   3.4667969e-01   3.3691406e-01   3.2714844e-01   3.1250000e-01   3.0273438e-01   2.9785156e-01   2.8808594e-01   2.8320312e-01   2.6855469e-01   2.6367188e-01   2.6367188e-01   2.5878906e-01   2.5390625e-01   2.4902344e-01   2.4902344e-01   2.4414062e-01   2.4414062e-01   2.3925781e-01   2.3925781e-01   2.3925781e-01   2.3437500e-01   2.2949219e-01   2.2949219e-01   2.2949219e-01   2.3437500e-01   2.3925781e-01   2.5390625e-01   2.7343750e-01   3.0273438e-01   3.3203125e-01   3.6621094e-01   4.0039062e-01   4.2480469e-01   4.5410156e-01   4.7851562e-01   4.9804688e-01   5.1757812e-01   5.3222656e-01   5.4199219e-01   5.5664062e-01   5.6152344e-01   5.6640625e-01   5.7128906e-01   5.7128906e-01   5.7128906e-01   5.7128906e-01   5.6152344e-01   5.5664062e-01   5.5175781e-01   5.3710938e-01   5.3222656e-01   5.1757812e-01   5.0781250e-01   4.9316406e-01   4.8339844e-01   4.7851562e-01   4.7363281e-01   4.6875000e-01   4.6386719e-01   4.6386719e-01   4.5410156e-01   4.5410156e-01   4.4921875e-01   4.4433594e-01   4.3945312e-01   4.2968750e-01   4.2480469e-01   4.1992188e-01   4.1015625e-01   4.0527344e-01   3.9550781e-01   3.8574219e-01   3.7109375e-01   3.6621094e-01   3.5644531e-01   3.4179688e-01   3.3691406e-01   3.2714844e-01   3.1738281e-01   3.0761719e-01   2.9785156e-01   2.8808594e-01   2.8320312e-01   2.7343750e-01   2.6855469e-01   2.6367188e-01   2.5878906e-01   2.5390625e-01   2.4902344e-01   2.4902344e-01   2.4902344e-01   2.3925781e-01   2.3925781e-01   2.3925781e-01   2.3925781e-01   2.3437500e-01   2.2949219e-01   2.2949219e-01   2.2460938e-01   2.1972656e-01   2.2460938e-01   2.2460938e-01   2.2949219e-01   2.4902344e-01   2.6855469e-01   2.9785156e-01   3.2714844e-01   3.6132812e-01   3.9062500e-01   4.1992188e-01   4.4921875e-01   4.7363281e-01   4.9316406e-01   5.1269531e-01   5.2734375e-01   5.3710938e-01   5.4687500e-01   5.5175781e-01   5.5664062e-01   5.5664062e-01   5.6152344e-01   5.5664062e-01   5.5664062e-01   5.5175781e-01   5.4199219e-01   5.3222656e-01   5.1757812e-01   5.1269531e-01   4.9316406e-01   4.8828125e-01   4.7851562e-01   4.6875000e-01   4.5898438e-01   4.5410156e-01   4.4921875e-01   4.4433594e-01   4.3945312e-01   4.3457031e-01   4.3457031e-01   4.2480469e-01   4.2480469e-01   4.1503906e-01   4.1015625e-01   4.0039062e-01   3.9550781e-01   3.8574219e-01   3.8085938e-01   3.7109375e-01   3.5644531e-01   3.5156250e-01   3.3691406e-01   3.2714844e-01   3.1738281e-01   3.0273438e-01   2.9296875e-01   2.8320312e-01   2.7832031e-01   2.6855469e-01   2.5878906e-01   2.4902344e-01   2.3925781e-01   2.3437500e-01   2.3437500e-01   2.2460938e-01   2.2460938e-01   2.1972656e-01   2.1972656e-01   2.1972656e-01   2.1484375e-01   2.1484375e-01   2.0996094e-01   2.0996094e-01   2.0996094e-01   2.0019531e-01   2.0019531e-01   2.0019531e-01   1.9531250e-01   1.9531250e-01   2.0019531e-01   2.0996094e-01   2.2460938e-01   2.4414062e-01   2.7343750e-01   3.0273438e-01   3.3691406e-01   3.7109375e-01   4.0527344e-01   4.3457031e-01   4.5410156e-01   4.7851562e-01   4.9804688e-01   5.1269531e-01   5.2246094e-01   5.2734375e-01   5.3222656e-01   5.3710938e-01   5.3710938e-01   5.3710938e-01   5.3222656e-01   5.2734375e-01   5.2246094e-01   5.1269531e-01   4.9804688e-01   4.8339844e-01   4.7851562e-01   4.6386719e-01   4.5410156e-01   4.4921875e-01   4.3945312e-01   4.3457031e-01   4.2968750e-01   4.2480469e-01   4.2480469e-01   4.1992188e-01   4.1503906e-01   4.1503906e-01   4.1015625e-01   4.1015625e-01   4.0039062e-01   3.9550781e-01   3.9550781e-01   3.8574219e-01   3.7597656e-01   3.7109375e-01   3.6132812e-01   3.5156250e-01   3.4179688e-01   3.3203125e-01   3.2714844e-01   3.1738281e-01   3.0273438e-01   2.9296875e-01   2.8320312e-01   2.6855469e-01   2.6367188e-01   2.5878906e-01   2.5390625e-01   2.4902344e-01   2.4414062e-01   2.3925781e-01   2.3437500e-01   2.2949219e-01   2.2949219e-01   2.2949219e-01   2.2460938e-01   2.1972656e-01   2.1972656e-01   2.1484375e-01   2.1484375e-01   2.0996094e-01   2.0507812e-01   2.0996094e-01   2.0996094e-01   2.1484375e-01   2.2949219e-01   2.4902344e-01   2.7343750e-01   3.0273438e-01   3.4179688e-01   3.7597656e-01   4.0527344e-01   4.3457031e-01   4.5898438e-01   4.8339844e-01   5.0292969e-01   5.1269531e-01   5.2734375e-01   5.3222656e-01   5.3710938e-01   5.4199219e-01   5.4199219e-01   5.4199219e-01   5.4199219e-01   5.3222656e-01   5.2734375e-01   5.1757812e-01   5.0781250e-01   4.9316406e-01   4.7851562e-01   4.7363281e-01   4.5898438e-01   4.4921875e-01   4.4433594e-01   4.3457031e-01   4.3457031e-01   4.2968750e-01   4.2480469e-01   4.1992188e-01   4.1992188e-01   4.1992188e-01   4.1503906e-01   4.1015625e-01   4.1015625e-01   4.0527344e-01   3.9550781e-01   3.9062500e-01   3.8574219e-01   3.7597656e-01   3.6621094e-01   3.6132812e-01   3.4667969e-01   3.4179688e-01   3.3203125e-01   3.1738281e-01   3.0761719e-01   2.9785156e-01   2.8808594e-01   2.7832031e-01   2.6855469e-01   2.5878906e-01   2.5390625e-01   2.4414062e-01   2.3925781e-01   2.2949219e-01   2.2949219e-01   2.1972656e-01   2.1972656e-01   2.1972656e-01   2.1484375e-01   2.1484375e-01   2.0996094e-01   2.0996094e-01   2.0996094e-01   2.0507812e-01   2.0507812e-01   2.0019531e-01   2.0019531e-01   2.0019531e-01   2.0019531e-01   2.0019531e-01   2.0996094e-01   2.2460938e-01   2.4902344e-01   2.7832031e-01   3.1250000e-01   3.5156250e-01   3.9062500e-01   4.1992188e-01   4.5410156e-01   4.8339844e-01   5.0781250e-01   5.2246094e-01   5.3710938e-01   5.5175781e-01   5.6152344e-01   5.7128906e-01   5.7617188e-01   5.8105469e-01   5.7617188e-01   5.7617188e-01   5.7128906e-01   5.6640625e-01   5.6152344e-01   5.4687500e-01   5.3710938e-01   5.2734375e-01   5.1269531e-01   5.0292969e-01   4.9316406e-01   4.7851562e-01   4.7363281e-01   4.6386719e-01   4.5898438e-01   4.5410156e-01   4.4921875e-01   4.4921875e-01   4.4433594e-01   4.3945312e-01   4.3457031e-01   4.2968750e-01   4.2968750e-01   4.2480469e-01   4.1503906e-01   4.0527344e-01   3.9550781e-01   3.8574219e-01   3.7597656e-01   3.6621094e-01   3.5644531e-01   3.4667969e-01   3.3691406e-01   3.2226562e-01   3.1250000e-01   3.0273438e-01   2.9296875e-01   2.8320312e-01   2.7343750e-01   2.6367188e-01   2.5878906e-01   2.5390625e-01   2.4414062e-01   2.3925781e-01   2.2949219e-01   2.2949219e-01   2.2460938e-01   2.2460938e-01   2.1972656e-01   2.1972656e-01   2.1972656e-01   2.1484375e-01   2.1484375e-01   2.0996094e-01   2.0507812e-01   2.0507812e-01   2.0507812e-01   2.0019531e-01   2.0019531e-01   2.0019531e-01   2.0996094e-01   2.2949219e-01   2.5390625e-01   2.8320312e-01   3.2226562e-01   3.5644531e-01   3.9062500e-01   4.2480469e-01   4.5410156e-01   4.8339844e-01   5.0292969e-01   5.2246094e-01   5.3710938e-01   5.5175781e-01   5.5664062e-01   5.6152344e-01   5.6640625e-01   5.7128906e-01   5.7128906e-01   5.6640625e-01   5.6152344e-01   5.5175781e-01   5.4199219e-01   5.3222656e-01   5.1757812e-01   5.0292969e-01   4.9316406e-01   4.7851562e-01   4.6875000e-01   4.5898438e-01   4.4921875e-01   4.3945312e-01   4.3945312e-01   4.3457031e-01   4.3457031e-01   4.2480469e-01   4.2480469e-01   4.1992188e-01   4.1503906e-01   4.1015625e-01   4.0527344e-01   3.9550781e-01   3.9062500e-01   3.8574219e-01   3.7597656e-01   3.6621094e-01   3.5644531e-01   3.4667969e-01   3.3691406e-01   3.2226562e-01   3.1250000e-01   2.9785156e-01   2.8808594e-01   2.7832031e-01   2.6855469e-01   2.5390625e-01   2.4414062e-01   2.3925781e-01   2.2949219e-01   2.2460938e-01   2.1972656e-01   2.1484375e-01   2.0996094e-01   2.0507812e-01   2.0019531e-01   2.0019531e-01   1.9531250e-01   1.9531250e-01   1.9531250e-01   1.9042969e-01   1.9042969e-01   1.8554688e-01   1.8554688e-01   1.8066406e-01   1.8066406e-01   1.8066406e-01   1.8066406e-01   1.9042969e-01   2.0019531e-01   2.1972656e-01   2.4902344e-01   2.7832031e-01   3.1738281e-01   3.5644531e-01   3.9062500e-01   4.2480469e-01   4.4921875e-01   4.7851562e-01   4.9804688e-01   5.1269531e-01   5.2734375e-01   5.3710938e-01   5.4199219e-01   5.4687500e-01   5.4687500e-01   5.4199219e-01   5.4199219e-01   5.3222656e-01   5.2246094e-01   5.1269531e-01   4.9804688e-01   4.8828125e-01   4.7363281e-01   4.6386719e-01   4.4921875e-01   4.3457031e-01   4.2968750e-01   4.2480469e-01   4.1503906e-01   4.1015625e-01   4.1015625e-01   4.0527344e-01   4.0527344e-01   4.0039062e-01   4.0039062e-01   3.9550781e-01   3.9550781e-01   3.9062500e-01   3.8574219e-01   3.7597656e-01   3.7109375e-01   3.6132812e-01   3.5644531e-01   3.4179688e-01   3.3691406e-01   3.2714844e-01   3.1738281e-01   3.0273438e-01   2.9296875e-01   2.8320312e-01   2.7343750e-01   2.6367188e-01   2.5390625e-01   2.4414062e-01   2.3925781e-01   2.2949219e-01   2.2460938e-01   2.1972656e-01   2.0996094e-01   2.0996094e-01   2.0507812e-01   2.0507812e-01   2.0019531e-01   1.9531250e-01   1.9531250e-01   1.9042969e-01   1.8554688e-01   1.8554688e-01   1.8554688e-01   1.8066406e-01   1.8554688e-01   1.9042969e-01   2.0507812e-01   2.2460938e-01   2.5390625e-01   2.8808594e-01   3.2226562e-01   3.6132812e-01   3.9550781e-01   4.2968750e-01   4.5898438e-01   4.8339844e-01   5.0292969e-01   5.2246094e-01   5.3222656e-01   5.4199219e-01   5.4687500e-01   5.5175781e-01   5.5175781e-01   5.5175781e-01   5.4687500e-01   5.3710938e-01   5.2734375e-01   5.1757812e-01   5.0292969e-01   4.9316406e-01   4.7851562e-01   4.6386719e-01   4.4921875e-01   4.3945312e-01   4.2968750e-01   4.2480469e-01   4.1992188e-01   4.1503906e-01   4.1015625e-01   4.1015625e-01   4.0527344e-01   4.0527344e-01   4.0527344e-01   4.0039062e-01   3.9550781e-01   3.9062500e-01   3.8574219e-01   3.8574219e-01   3.7597656e-01   3.7109375e-01   3.6132812e-01   3.5644531e-01   3.4667969e-01   3.3691406e-01   3.2226562e-01   3.1738281e-01   3.0273438e-01   2.9296875e-01   2.8320312e-01   2.7832031e-01   2.6367188e-01   2.5390625e-01   2.4902344e-01   2.3925781e-01   2.3437500e-01   2.2949219e-01   2.1972656e-01   2.1972656e-01   2.0996094e-01   2.0996094e-01   2.0996094e-01   2.0507812e-01   2.0996094e-01   2.0507812e-01   2.0019531e-01   2.0019531e-01   1.9531250e-01   1.9531250e-01   2.0019531e-01   2.0019531e-01   2.1484375e-01   2.2949219e-01   2.5878906e-01   2.9785156e-01   3.3203125e-01   3.6621094e-01   4.1015625e-01   4.4433594e-01   4.7851562e-01   5.0292969e-01   5.2734375e-01   5.4687500e-01   5.6152344e-01   5.7128906e-01   5.8105469e-01   5.8593750e-01   5.9082031e-01   5.9082031e-01   5.9082031e-01   5.8593750e-01   5.8105469e-01   5.7128906e-01   5.6640625e-01   5.5175781e-01   5.3710938e-01   5.2246094e-01   5.1269531e-01   4.9804688e-01   4.8828125e-01   4.7851562e-01   4.7363281e-01   4.6386719e-01   4.5898438e-01   4.5898438e-01   4.5410156e-01   4.4921875e-01   4.4921875e-01   4.4433594e-01   4.4433594e-01   4.3457031e-01   4.2968750e-01   4.2480469e-01   4.1503906e-01   4.1015625e-01   4.0039062e-01   3.9062500e-01   3.8085938e-01   3.7109375e-01   3.6132812e-01   3.4667969e-01   3.3691406e-01   3.2714844e-01   3.1738281e-01   3.0273438e-01   2.9296875e-01   2.8320312e-01   2.7832031e-01   2.6855469e-01   2.5878906e-01   2.5390625e-01   2.4902344e-01   2.3925781e-01   2.3925781e-01   2.3437500e-01   2.2949219e-01   2.2949219e-01   2.2460938e-01   2.2460938e-01   2.1972656e-01   2.1484375e-01   2.1484375e-01   2.0996094e-01   2.1484375e-01   2.1484375e-01   2.1972656e-01   2.3437500e-01   2.5878906e-01   2.8320312e-01   3.2226562e-01   3.5644531e-01   4.0039062e-01   4.2968750e-01   4.6386719e-01   4.8828125e-01   5.1269531e-01   5.3222656e-01   5.4687500e-01   5.6152344e-01   5.6640625e-01   5.7128906e-01   5.7617188e-01   5.7617188e-01   5.8105469e-01   5.7617188e-01   5.7128906e-01   5.6152344e-01   5.5175781e-01   5.4199219e-01   5.2734375e-01   5.1757812e-01   5.0292969e-01   4.8828125e-01   4.7851562e-01   4.7363281e-01   4.5898438e-01   4.5410156e-01   4.4433594e-01   4.4433594e-01   4.3945312e-01   4.3457031e-01   4.3457031e-01   4.2968750e-01   4.2480469e-01   4.1992188e-01   4.1503906e-01   4.1015625e-01   4.0527344e-01   3.9550781e-01   3.8574219e-01   3.7597656e-01   3.6621094e-01   3.6132812e-01   3.4667969e-01   3.3691406e-01   3.3203125e-01   3.1738281e-01   3.0761719e-01   2.9296875e-01   2.8320312e-01   2.7832031e-01   2.6855469e-01   2.5878906e-01   2.4902344e-01   2.4414062e-01   2.3925781e-01   2.2949219e-01   2.2949219e-01   2.2460938e-01   2.1972656e-01   2.1972656e-01   2.1484375e-01   2.1484375e-01   2.0996094e-01   2.0996094e-01   2.0507812e-01   2.0019531e-01   2.0019531e-01   2.0019531e-01   2.0507812e-01   2.1972656e-01   2.3437500e-01   2.5878906e-01   2.9296875e-01   3.2714844e-01   3.6132812e-01   4.0039062e-01   4.2968750e-01   4.5898438e-01   4.8828125e-01   5.0292969e-01   5.2246094e-01   5.3710938e-01   5.4687500e-01   5.5175781e-01   5.5664062e-01   5.5664062e-01   5.5664062e-01   5.5175781e-01   5.4687500e-01   5.4199219e-01   5.3222656e-01   5.2246094e-01   5.1269531e-01   4.9804688e-01   4.8339844e-01   4.7363281e-01   4.6386719e-01   4.5898438e-01   4.4921875e-01   4.4433594e-01   4.3945312e-01   4.3457031e-01   4.3457031e-01   4.2968750e-01   4.2968750e-01   4.2968750e-01   4.2480469e-01   4.1992188e-01   4.1992188e-01   4.1015625e-01   4.0527344e-01   3.9550781e-01   3.9062500e-01   3.8085938e-01   3.7109375e-01   3.6132812e-01   3.5156250e-01   3.4667969e-01   3.3203125e-01   3.2226562e-01   3.1250000e-01   3.0273438e-01   2.9296875e-01   2.8320312e-01   2.7343750e-01   2.7343750e-01   2.6367188e-01   2.5878906e-01   2.5390625e-01   2.4902344e-01   2.4414062e-01   2.4414062e-01   2.3925781e-01   2.3437500e-01   2.3437500e-01   2.2949219e-01   2.2460938e-01   2.2460938e-01   2.1972656e-01   2.1972656e-01   2.2460938e-01   2.3437500e-01   2.4902344e-01   2.6855469e-01   2.9296875e-01   3.2714844e-01   3.5644531e-01   3.9550781e-01   4.2968750e-01   4.5410156e-01   4.7851562e-01   4.9804688e-01   5.1757812e-01   5.3222656e-01   5.4199219e-01   5.5175781e-01   5.5175781e-01   5.5664062e-01   5.5664062e-01   5.5664062e-01   5.5175781e-01   5.4199219e-01   5.3222656e-01   5.2246094e-01   5.1269531e-01   4.9804688e-01   4.8339844e-01   4.7363281e-01   4.6386719e-01   4.5898438e-01   4.4921875e-01   4.4433594e-01   4.3945312e-01   4.3945312e-01   4.3945312e-01   4.3457031e-01   4.3457031e-01   4.2968750e-01   4.2480469e-01   4.2480469e-01   4.1992188e-01   4.1503906e-01   4.1015625e-01   4.0527344e-01   3.9550781e-01   3.9062500e-01   3.8085938e-01   3.7109375e-01   3.6621094e-01   3.5644531e-01   3.4179688e-01   3.3691406e-01   3.2714844e-01   3.1738281e-01   3.0761719e-01   2.9785156e-01   2.8808594e-01   2.8320312e-01   2.7343750e-01   2.6855469e-01   2.6855469e-01   2.6367188e-01   2.5390625e-01   2.5390625e-01   2.4902344e-01   2.4414062e-01   2.4902344e-01   2.4414062e-01   2.3925781e-01   2.3925781e-01   2.3437500e-01   2.3925781e-01   2.3925781e-01   2.4414062e-01   2.6367188e-01   2.8320312e-01   3.1250000e-01   3.4667969e-01   3.7597656e-01   4.1015625e-01   4.4433594e-01   4.6875000e-01   4.9316406e-01   5.1757812e-01   5.3710938e-01   5.5175781e-01   5.6152344e-01   5.7128906e-01   5.8105469e-01   5.8105469e-01   5.8593750e-01   5.8593750e-01   5.8105469e-01   5.8105469e-01   5.7617188e-01   5.6640625e-01   5.5664062e-01   5.4687500e-01   5.3710938e-01   5.2246094e-01   5.1757812e-01   5.0292969e-01   4.9316406e-01   4.8828125e-01   4.7851562e-01   4.7363281e-01   4.7363281e-01   4.6386719e-01   4.6386719e-01   4.5898438e-01   4.5898438e-01   4.5410156e-01   4.4921875e-01   4.4921875e-01   4.3945312e-01   4.2968750e-01   4.2480469e-01   4.1992188e-01   4.0527344e-01   4.0039062e-01   3.8574219e-01   3.7597656e-01   3.6621094e-01   3.5644531e-01   3.4179688e-01   3.3203125e-01   3.2226562e-01   3.1738281e-01   3.0761719e-01   2.9785156e-01   2.9296875e-01   2.8320312e-01   2.7832031e-01   2.7343750e-01   2.6855469e-01   2.6367188e-01   2.5878906e-01   2.5878906e-01   2.5390625e-01   2.5390625e-01   2.4902344e-01   2.4902344e-01   2.4414062e-01   2.3925781e-01   2.3925781e-01   2.3437500e-01   2.3437500e-01   2.3925781e-01   2.4902344e-01   2.6367188e-01   2.8320312e-01   3.1250000e-01   3.4667969e-01   3.7597656e-01   4.1015625e-01   4.3457031e-01   4.6386719e-01   4.8828125e-01   5.0781250e-01   5.2734375e-01   5.3710938e-01   5.5175781e-01   5.5664062e-01   5.6152344e-01   5.6640625e-01   5.6640625e-01   5.6640625e-01   5.6640625e-01   5.6152344e-01   5.5175781e-01   5.4687500e-01   5.3222656e-01   5.2734375e-01   5.1269531e-01   5.0292969e-01   4.8828125e-01   4.8339844e-01   4.7363281e-01   4.6875000e-01   4.6386719e-01   4.5410156e-01   4.5410156e-01   4.4921875e-01   4.4433594e-01   4.4433594e-01   4.3945312e-01   4.3457031e-01   4.2968750e-01   4.1992188e-01   4.1503906e-01   4.1015625e-01   4.0039062e-01   3.9550781e-01   3.8085938e-01   3.7597656e-01   3.6621094e-01   3.5156250e-01   3.4667969e-01   3.3691406e-01   3.2226562e-01   3.1738281e-01   3.0273438e-01   2.9296875e-01   2.8320312e-01   2.7832031e-01   2.6855469e-01   2.6367188e-01   2.5878906e-01   2.5390625e-01   2.5390625e-01   2.4902344e-01   2.4414062e-01   2.3925781e-01   2.3925781e-01   2.3437500e-01   2.3437500e-01   2.3437500e-01   2.2460938e-01   2.2460938e-01   2.1972656e-01   2.1972656e-01   2.2460938e-01   2.2949219e-01   2.3437500e-01   2.5390625e-01   2.7832031e-01   3.0761719e-01   3.3691406e-01   3.7109375e-01   4.0527344e-01   4.3457031e-01   4.5410156e-01   4.8339844e-01   5.0292969e-01   5.1269531e-01   5.2734375e-01   5.3710938e-01   5.4687500e-01   5.4687500e-01   5.4687500e-01   5.4687500e-01   5.4199219e-01   5.4199219e-01   5.3222656e-01   5.2246094e-01   5.1757812e-01   5.0292969e-01   4.9316406e-01   4.8339844e-01   4.6875000e-01   4.5898438e-01   4.5410156e-01   4.4921875e-01   4.4433594e-01   4.4433594e-01   4.3945312e-01   4.3457031e-01   4.2968750e-01   4.2968750e-01   4.2968750e-01   4.1992188e-01   4.1992188e-01   4.1503906e-01   4.0527344e-01   4.0039062e-01   3.9550781e-01   3.8574219e-01   3.8085938e-01   3.7109375e-01   3.6132812e-01   3.5156250e-01   3.4179688e-01   3.3203125e-01   3.1738281e-01   3.1250000e-01   2.9785156e-01   2.8808594e-01   2.8320312e-01   2.7343750e-01   2.7343750e-01   2.6367188e-01   2.5390625e-01   2.5390625e-01   2.4902344e-01   2.3925781e-01   2.3925781e-01   2.3437500e-01   2.3437500e-01   2.3437500e-01   2.2460938e-01   2.2460938e-01   2.1972656e-01   2.1972656e-01   2.2460938e-01   2.2460938e-01   2.3437500e-01   2.5878906e-01   2.7832031e-01   3.1250000e-01   3.3691406e-01   3.7109375e-01   4.0527344e-01   4.3457031e-01   4.5410156e-01   4.7851562e-01   4.9804688e-01   5.1269531e-01   5.2246094e-01   5.3222656e-01   5.4199219e-01   5.4199219e-01   5.4199219e-01   5.4199219e-01   5.3710938e-01   5.3222656e-01   5.2734375e-01   5.1757812e-01   5.1269531e-01   4.9804688e-01   4.8339844e-01   4.7363281e-01   4.5898438e-01   4.5410156e-01   4.4433594e-01   4.3945312e-01   4.3457031e-01   4.2968750e-01   4.2480469e-01   4.2480469e-01   4.1992188e-01   4.1992188e-01   4.1503906e-01   4.1503906e-01   4.1015625e-01   4.0527344e-01   3.9550781e-01   3.9062500e-01   3.8085938e-01   3.7597656e-01   3.6621094e-01   3.6132812e-01   3.5156250e-01   3.3691406e-01   3.3203125e-01   3.2226562e-01   3.0761719e-01   2.9785156e-01   2.8808594e-01   2.8320312e-01   2.7832031e-01   2.6855469e-01   2.6367188e-01   2.5390625e-01   2.4902344e-01   2.4414062e-01   2.4414062e-01   2.3925781e-01   2.3437500e-01   2.3437500e-01   2.2949219e-01   2.2949219e-01   2.2460938e-01   2.2460938e-01   2.1972656e-01   2.1484375e-01   2.1484375e-01   2.1484375e-01   2.1972656e-01   2.2949219e-01   2.4902344e-01   2.6855469e-01   2.9785156e-01   3.3691406e-01   3.7109375e-01   4.0527344e-01   4.3457031e-01   4.5898438e-01   4.8828125e-01   5.0781250e-01   5.2246094e-01   5.3710938e-01   5.4687500e-01   5.5664062e-01   5.6152344e-01   5.6640625e-01   5.6640625e-01   5.6640625e-01   5.6640625e-01   5.6152344e-01   5.5664062e-01   5.4687500e-01   5.3710938e-01   5.2246094e-01   5.1269531e-01   5.0292969e-01   4.8828125e-01   4.7851562e-01   4.7363281e-01   4.5898438e-01   4.5898438e-01   4.5410156e-01   4.4921875e-01   4.4433594e-01   4.3945312e-01   4.3457031e-01   4.3457031e-01   4.2480469e-01   4.2480469e-01   4.1992188e-01   4.1015625e-01   4.0039062e-01   3.9550781e-01   3.9062500e-01   3.8085938e-01   3.7109375e-01   3.6132812e-01   3.5156250e-01   3.4179688e-01   3.3203125e-01   3.2226562e-01   3.1738281e-01   3.0273438e-01   2.9296875e-01   2.7832031e-01   2.7343750e-01   2.6367188e-01   2.5390625e-01   2.4902344e-01   2.4414062e-01   2.3925781e-01   2.3437500e-01   2.3437500e-01   2.3437500e-01   2.2949219e-01   2.2949219e-01   2.2949219e-01   2.1972656e-01   2.1972656e-01   2.1972656e-01   2.1484375e-01   2.1484375e-01   2.0996094e-01   2.1484375e-01   2.1972656e-01   2.3437500e-01   2.5390625e-01   2.8320312e-01   3.1250000e-01   3.4667969e-01   3.8085938e-01   4.1503906e-01   4.4433594e-01   4.6386719e-01   4.8828125e-01   5.0292969e-01   5.2246094e-01   5.3222656e-01   5.3710938e-01   5.5175781e-01   5.5175781e-01   5.5175781e-01   5.5664062e-01   5.5175781e-01   5.4687500e-01   5.4199219e-01   5.3222656e-01   5.2246094e-01   5.0781250e-01   4.9804688e-01   4.8339844e-01   4.7363281e-01   4.6386719e-01   4.5410156e-01   4.4433594e-01   4.3945312e-01   4.3945312e-01   4.2968750e-01   4.2968750e-01   4.2480469e-01   4.1992188e-01   4.1992188e-01   4.1503906e-01   4.1015625e-01   4.0527344e-01   3.9550781e-01   3.9062500e-01   3.8574219e-01   3.7597656e-01   3.6621094e-01   3.5644531e-01   3.4179688e-01   3.3203125e-01   3.2226562e-01   3.1250000e-01   2.9785156e-01   2.8808594e-01   2.7832031e-01   2.6855469e-01   2.5878906e-01   2.4902344e-01   2.3925781e-01   2.3437500e-01   2.2949219e-01   2.1972656e-01   2.1484375e-01   2.1484375e-01   2.0507812e-01   2.0996094e-01   2.0507812e-01   2.0507812e-01   2.0019531e-01   1.9531250e-01   1.9531250e-01   1.9042969e-01   1.8554688e-01   1.8554688e-01   1.8554688e-01   1.8554688e-01   1.9042969e-01   2.0507812e-01   2.1972656e-01   2.3925781e-01   2.7343750e-01   3.0761719e-01   3.4667969e-01   3.8085938e-01   4.1015625e-01   4.3945312e-01   4.6875000e-01   4.8339844e-01   5.0292969e-01   5.1757812e-01   5.2246094e-01   5.2734375e-01   5.3222656e-01   5.3710938e-01   5.3710938e-01   5.3222656e-01   5.2734375e-01   5.2246094e-01   5.1269531e-01   4.9804688e-01   4.8339844e-01   4.7363281e-01   4.6386719e-01   4.4921875e-01   4.3945312e-01   4.3457031e-01   4.2480469e-01   4.1992188e-01   4.1503906e-01   4.1015625e-01   4.1015625e-01   4.0527344e-01   4.0039062e-01   4.0039062e-01   3.9550781e-01   3.9062500e-01   3.9062500e-01   3.8574219e-01   3.8085938e-01   3.7597656e-01   3.6621094e-01   3.6132812e-01   3.4667969e-01   3.3691406e-01   3.2714844e-01   3.2226562e-01   3.1250000e-01   3.0273438e-01   2.8808594e-01   2.8320312e-01   2.6855469e-01   2.6367188e-01   2.4902344e-01   2.4414062e-01   2.3437500e-01   2.2949219e-01   2.2460938e-01   2.2460938e-01   2.1972656e-01   2.1484375e-01   2.0996094e-01   2.0996094e-01   2.0507812e-01   2.0507812e-01   2.0507812e-01   2.0019531e-01   2.0019531e-01   2.0019531e-01   2.0019531e-01   2.0996094e-01   2.2460938e-01   2.4414062e-01   2.7343750e-01   3.0273438e-01   3.3691406e-01   3.7109375e-01   4.0527344e-01   4.3457031e-01   4.6386719e-01   4.8339844e-01   4.9804688e-01   5.1757812e-01   5.2246094e-01   5.3222656e-01   5.3710938e-01   5.3710938e-01   5.3710938e-01   5.3710938e-01   5.3222656e-01   5.2734375e-01   5.1757812e-01   5.0292969e-01   4.9316406e-01   4.7363281e-01   4.6386719e-01   4.5410156e-01   4.3945312e-01   4.3457031e-01   4.2480469e-01   4.1992188e-01   4.1503906e-01   4.1015625e-01   4.1015625e-01   4.0527344e-01   4.0527344e-01   4.0039062e-01   4.0039062e-01   3.9550781e-01   3.9550781e-01   3.8574219e-01   3.8085938e-01   3.7597656e-01   3.6621094e-01   3.6132812e-01   3.5156250e-01   3.4667969e-01   3.3203125e-01   3.2714844e-01   3.1738281e-01   3.0273438e-01   2.9785156e-01   2.8808594e-01   2.7343750e-01   2.6855469e-01   2.5878906e-01   2.4902344e-01   2.4414062e-01   2.3437500e-01   2.2949219e-01   2.2460938e-01   2.1972656e-01   2.1484375e-01   2.1484375e-01   2.0996094e-01   2.0507812e-01   2.0019531e-01   2.0019531e-01   1.9531250e-01   1.9531250e-01   1.9042969e-01   1.9042969e-01   1.9531250e-01   2.0996094e-01   2.1972656e-01   2.4414062e-01   2.7832031e-01   3.1250000e-01   3.4667969e-01   3.8574219e-01   4.1992188e-01   4.5898438e-01   4.7851562e-01   5.0781250e-01   5.2734375e-01   5.4199219e-01   5.5664062e-01   5.6640625e-01   5.7128906e-01   5.7617188e-01   5.8105469e-01   5.7617188e-01   5.7617188e-01   5.7128906e-01   5.6640625e-01   5.5664062e-01   5.4199219e-01   5.3222656e-01   5.1757812e-01   5.0292969e-01   4.9316406e-01   4.8339844e-01   4.6875000e-01   4.6386719e-01   4.5410156e-01   4.5410156e-01   4.4433594e-01   4.3945312e-01   4.4433594e-01   4.3457031e-01   4.3457031e-01   4.3457031e-01   4.2480469e-01   4.1992188e-01   4.1503906e-01   4.0527344e-01   4.0039062e-01   3.9550781e-01   3.8085938e-01   3.7597656e-01   3.6621094e-01   3.5644531e-01   3.4667969e-01   3.3203125e-01   3.2714844e-01   3.1738281e-01   3.0273438e-01   2.9296875e-01   2.8320312e-01   2.7343750e-01   2.6855469e-01   2.5390625e-01   2.4902344e-01   2.4414062e-01   2.3437500e-01   2.2949219e-01   2.2949219e-01   2.2460938e-01   2.1972656e-01   2.1972656e-01   2.1484375e-01   2.0996094e-01   2.0507812e-01   2.0507812e-01   2.0019531e-01   2.0019531e-01   2.0019531e-01   2.0019531e-01   2.0996094e-01   2.2949219e-01   2.4902344e-01   2.8320312e-01   3.1738281e-01   3.5644531e-01   3.9550781e-01   4.2968750e-01   4.6386719e-01   4.8828125e-01   5.1269531e-01   5.2734375e-01   5.4687500e-01   5.6152344e-01   5.6640625e-01   5.7128906e-01   5.7617188e-01   5.7617188e-01   5.7617188e-01   5.7617188e-01   5.7128906e-01   5.6152344e-01   5.5175781e-01   5.4199219e-01   5.2734375e-01   5.1269531e-01   5.0292969e-01   4.8339844e-01   4.7363281e-01   4.6875000e-01   4.5898438e-01   4.4921875e-01   4.4921875e-01   4.4433594e-01   4.3945312e-01   4.3457031e-01   4.2968750e-01   4.2480469e-01   4.2480469e-01   4.1992188e-01   4.1503906e-01   4.0527344e-01   4.0039062e-01   3.9062500e-01   3.8085938e-01   3.7597656e-01   3.6621094e-01   3.5644531e-01   3.4179688e-01   3.2714844e-01   3.2226562e-01   3.0761719e-01   2.9785156e-01   2.8808594e-01   2.7832031e-01   2.6855469e-01   2.5878906e-01   2.5390625e-01   2.4414062e-01   2.3925781e-01   2.3925781e-01   2.2949219e-01   2.2460938e-01   2.1972656e-01   2.1972656e-01   2.1484375e-01   2.0996094e-01   2.0996094e-01   2.0507812e-01   2.0019531e-01   2.0019531e-01   2.0019531e-01   2.0507812e-01   2.0996094e-01   2.2949219e-01   2.5390625e-01   2.8320312e-01   3.1738281e-01   3.5644531e-01   3.8574219e-01   4.2480469e-01   4.5410156e-01   4.7851562e-01   4.9804688e-01   5.1269531e-01   5.2734375e-01   5.3710938e-01   5.4199219e-01   5.4687500e-01   5.5175781e-01   5.5175781e-01   5.4687500e-01   5.4199219e-01   5.3222656e-01   5.2246094e-01   5.0781250e-01   4.9804688e-01   4.8339844e-01   4.7363281e-01   4.5898438e-01   4.4921875e-01   4.3945312e-01   4.3457031e-01   4.2480469e-01   4.2480469e-01   4.1992188e-01   4.1992188e-01   4.1503906e-01   4.1015625e-01   4.1015625e-01   4.0527344e-01   4.0527344e-01   3.9550781e-01   3.9550781e-01   3.8574219e-01   3.7597656e-01   3.7109375e-01   3.6621094e-01   3.5644531e-01   3.4179688e-01   3.3691406e-01   3.2714844e-01   3.1738281e-01   3.0761719e-01   2.9785156e-01   2.8808594e-01   2.7832031e-01   2.6855469e-01   2.6367188e-01   2.5878906e-01   2.4902344e-01   2.4414062e-01   2.3925781e-01   2.3437500e-01   2.3437500e-01   2.2460938e-01   2.2460938e-01   2.1972656e-01   2.1484375e-01   2.1484375e-01   2.0507812e-01   2.0507812e-01   2.0507812e-01   2.0507812e-01   2.0996094e-01   2.1972656e-01   2.3437500e-01   2.5390625e-01   2.8320312e-01   3.2226562e-01   3.5644531e-01   3.9062500e-01   4.2480469e-01   4.5410156e-01   4.7851562e-01   4.9804688e-01   5.1757812e-01   5.2734375e-01   5.4199219e-01   5.4687500e-01   5.5175781e-01   5.5175781e-01   5.5175781e-01   5.4687500e-01   5.4199219e-01   5.3710938e-01   5.2246094e-01   5.0781250e-01   4.9804688e-01   4.8339844e-01   4.7363281e-01   4.5898438e-01   4.4921875e-01   4.3945312e-01   4.3457031e-01   4.2968750e-01   4.2480469e-01   4.2480469e-01   4.1992188e-01   4.1503906e-01   4.1503906e-01   4.1503906e-01   4.1503906e-01   4.0527344e-01   4.0039062e-01   4.0039062e-01   3.9062500e-01   3.8574219e-01   3.8085938e-01   3.7109375e-01   3.6132812e-01   3.5156250e-01   3.4179688e-01   3.3203125e-01   3.2226562e-01   3.1250000e-01   2.9785156e-01   2.8808594e-01   2.8320312e-01   2.6855469e-01   2.6367188e-01   2.5390625e-01   2.4902344e-01   2.3925781e-01   2.3437500e-01   2.3437500e-01   2.2949219e-01   2.2460938e-01   2.1972656e-01   2.1484375e-01   2.1484375e-01   2.1484375e-01   2.0507812e-01   2.0507812e-01   2.0507812e-01   2.0019531e-01   2.0507812e-01   2.1484375e-01   2.2949219e-01   2.4902344e-01   2.7832031e-01   3.1738281e-01   3.5644531e-01   3.9062500e-01   4.2968750e-01   4.5898438e-01   4.8828125e-01   5.1269531e-01   5.3222656e-01   5.5175781e-01   5.6152344e-01   5.7617188e-01   5.7617188e-01   5.8593750e-01   5.8593750e-01   5.8593750e-01   5.8593750e-01   5.8105469e-01   5.7617188e-01   5.6640625e-01   5.5664062e-01   5.4199219e-01   5.3222656e-01   5.2246094e-01   5.0292969e-01   4.9316406e-01   4.8339844e-01   4.7363281e-01   4.6875000e-01   4.6386719e-01   4.5898438e-01   4.5410156e-01   4.5410156e-01   4.4921875e-01   4.4921875e-01   4.3945312e-01   4.4433594e-01   4.3457031e-01   4.2480469e-01   4.1992188e-01   4.1015625e-01   4.0039062e-01   3.9550781e-01   3.8085938e-01   3.7597656e-01   3.6621094e-01   3.5156250e-01   3.4179688e-01   3.3203125e-01   3.2226562e-01   3.1738281e-01   3.0273438e-01   2.9296875e-01   2.8808594e-01   2.7832031e-01   2.7343750e-01   2.6367188e-01   2.5878906e-01   2.5390625e-01   2.4902344e-01   2.4414062e-01   2.3925781e-01   2.3925781e-01   2.3437500e-01   2.2949219e-01   2.2949219e-01   2.2460938e-01   2.1972656e-01   2.1972656e-01   2.1972656e-01   2.1972656e-01   2.2460938e-01   2.3925781e-01   2.6367188e-01   2.9296875e-01   3.2714844e-01   3.6621094e-01   4.0527344e-01   4.3945312e-01   4.6875000e-01   4.9316406e-01   5.1269531e-01   5.3222656e-01   5.4687500e-01   5.5664062e-01   5.6640625e-01   5.7128906e-01   5.8105469e-01   5.8105469e-01   5.7617188e-01   5.7617188e-01   5.7128906e-01   5.6152344e-01   5.5175781e-01   5.4199219e-01   5.2734375e-01   5.1269531e-01   5.0292969e-01   4.9316406e-01   4.7851562e-01   4.7363281e-01   4.6386719e-01   4.5410156e-01   4.4921875e-01   4.4433594e-01   4.3945312e-01   4.3945312e-01   4.3457031e-01   4.3457031e-01   4.2480469e-01   4.1992188e-01   4.1503906e-01   4.1015625e-01   4.0039062e-01   3.9062500e-01   3.8574219e-01   3.7109375e-01   3.6621094e-01   3.5156250e-01   3.4179688e-01   3.2714844e-01   3.1738281e-01   3.0761719e-01   2.9785156e-01   2.8320312e-01   2.7343750e-01   2.6855469e-01   2.5390625e-01   2.4902344e-01   2.4414062e-01   2.3437500e-01   2.2949219e-01   2.2460938e-01   2.1972656e-01   2.1972656e-01   2.1484375e-01   2.0996094e-01   2.0996094e-01   2.0996094e-01   2.0507812e-01   2.0019531e-01   2.0019531e-01   2.0019531e-01   1.9531250e-01   2.0019531e-01   2.0507812e-01   2.1972656e-01   2.4414062e-01   2.6367188e-01   3.0273438e-01   3.3691406e-01   3.7597656e-01   4.0527344e-01   4.3945312e-01   4.6386719e-01   4.8828125e-01   5.0781250e-01   5.2734375e-01   5.3710938e-01   5.4687500e-01   5.5175781e-01   5.5664062e-01   5.6152344e-01   5.5664062e-01   5.5664062e-01   5.5175781e-01   5.4199219e-01   5.3222656e-01   5.1757812e-01   5.0781250e-01   4.9804688e-01   4.8339844e-01   4.7363281e-01   4.6386719e-01   4.5410156e-01   4.4921875e-01   4.4433594e-01   4.3945312e-01   4.3945312e-01   4.3457031e-01   4.3457031e-01   4.2968750e-01   4.2968750e-01   4.2480469e-01   4.1503906e-01   4.1015625e-01   4.0527344e-01   4.0039062e-01   3.9550781e-01   3.8574219e-01   3.7597656e-01   3.6621094e-01   3.5156250e-01   3.4667969e-01   3.3203125e-01   3.2226562e-01   3.1250000e-01   3.0273438e-01   2.9296875e-01   2.8320312e-01   2.7343750e-01   2.6855469e-01   2.5878906e-01   2.5878906e-01   2.5390625e-01   2.4902344e-01   2.4414062e-01   2.3925781e-01   2.3925781e-01   2.3437500e-01   2.2949219e-01   2.2949219e-01   2.2460938e-01   2.2460938e-01   2.2460938e-01   2.2949219e-01   2.2949219e-01   2.3437500e-01   2.4902344e-01   2.7343750e-01   2.9785156e-01   3.3203125e-01   3.6132812e-01   3.9550781e-01   4.2480469e-01   4.5410156e-01   4.7851562e-01   4.9804688e-01   5.1757812e-01   5.2734375e-01   5.3710938e-01   5.4687500e-01   5.5175781e-01   5.5664062e-01   5.5664062e-01   5.5175781e-01   5.4687500e-01   5.4199219e-01   5.3222656e-01   5.2246094e-01   5.0781250e-01   4.9804688e-01   4.8828125e-01   4.7363281e-01   4.6875000e-01   4.5898438e-01   4.5410156e-01   4.4921875e-01   4.4433594e-01   4.4433594e-01   4.3945312e-01   4.3457031e-01   4.3457031e-01   4.2968750e-01   4.2480469e-01   4.2480469e-01   4.1992188e-01   4.1503906e-01   4.1015625e-01   4.0039062e-01   3.9550781e-01   3.8574219e-01   3.8085938e-01   3.7109375e-01   3.6132812e-01   3.5156250e-01   3.4179688e-01   3.3203125e-01   3.2226562e-01   3.1738281e-01   3.0273438e-01   2.9296875e-01   2.8808594e-01   2.7832031e-01   2.7343750e-01   2.6855469e-01   2.5878906e-01   2.5390625e-01   2.5390625e-01   2.5390625e-01   2.4902344e-01   2.4414062e-01   2.3925781e-01   2.3925781e-01   2.3437500e-01   2.3437500e-01   2.2949219e-01   2.2949219e-01   2.3437500e-01   2.4414062e-01   2.5878906e-01   2.8320312e-01   3.0761719e-01   3.4179688e-01   3.8085938e-01   4.1503906e-01   4.4433594e-01   4.7363281e-01   4.9804688e-01   5.1757812e-01   5.3710938e-01   5.5175781e-01   5.6152344e-01   5.7128906e-01   5.8105469e-01   5.8105469e-01   5.9082031e-01   5.8593750e-01   5.9082031e-01   5.8593750e-01   5.8105469e-01   5.7128906e-01   5.6152344e-01   5.4687500e-01   5.3710938e-01   5.2734375e-01   5.1269531e-01   5.0292969e-01   4.9316406e-01   4.8828125e-01   4.8339844e-01   4.7851562e-01   4.7363281e-01   4.6875000e-01   4.6386719e-01   4.6386719e-01   4.5410156e-01   4.5410156e-01   4.4433594e-01   4.3945312e-01   4.3457031e-01   4.2480469e-01   4.1503906e-01   4.0527344e-01   3.9550781e-01   3.8574219e-01   3.7597656e-01   3.6621094e-01   3.5644531e-01   3.4667969e-01   3.3691406e-01   3.2714844e-01   3.1738281e-01   3.1250000e-01   3.0273438e-01   2.9296875e-01   2.8320312e-01   2.7832031e-01   2.7343750e-01   2.7343750e-01   2.6367188e-01   2.6855469e-01   2.6367188e-01   2.5878906e-01   2.5878906e-01   2.4902344e-01   2.4902344e-01   2.4902344e-01   2.3925781e-01   2.3925781e-01   2.3925781e-01   2.3437500e-01   2.3925781e-01   2.4414062e-01   2.5878906e-01   2.8320312e-01   3.0761719e-01   3.4179688e-01   3.7597656e-01   4.0527344e-01   4.3945312e-01   4.6386719e-01   4.9316406e-01   5.0781250e-01   5.2734375e-01   5.4199219e-01   5.5175781e-01   5.6152344e-01   5.6640625e-01   5.7128906e-01   5.7617188e-01   5.7617188e-01   5.7617188e-01   5.7128906e-01   5.6640625e-01   5.5664062e-01   5.4687500e-01   5.3710938e-01   5.2734375e-01   5.1269531e-01   5.0292969e-01   4.9316406e-01   4.8339844e-01   4.7851562e-01   4.7363281e-01   4.6875000e-01   4.5898438e-01   4.5410156e-01   4.5410156e-01   4.4921875e-01   4.4433594e-01   4.3457031e-01   4.2968750e-01   4.2480469e-01   4.1503906e-01   4.1015625e-01   4.0039062e-01   3.9550781e-01   3.8085938e-01   3.7109375e-01   3.6621094e-01   3.5156250e-01   3.4179688e-01   3.3203125e-01   3.1738281e-01   3.0761719e-01   2.9785156e-01   2.8320312e-01   2.7832031e-01   2.6855469e-01   2.5878906e-01   2.5390625e-01   2.4902344e-01   2.3925781e-01   2.3925781e-01   2.2949219e-01   2.2949219e-01   2.2460938e-01   2.1972656e-01   2.1972656e-01   2.1484375e-01   2.1484375e-01   2.0996094e-01   2.0507812e-01   2.0507812e-01   2.0019531e-01   2.0019531e-01   2.0019531e-01   2.0019531e-01   2.1484375e-01   2.2949219e-01   2.5390625e-01   2.8320312e-01   3.1738281e-01   3.5156250e-01   3.8085938e-01   4.1503906e-01   4.4433594e-01   4.6875000e-01   4.9316406e-01   5.0781250e-01   5.2246094e-01   5.3222656e-01   5.4199219e-01   5.4199219e-01   5.4687500e-01   5.5175781e-01   5.4687500e-01   5.4687500e-01   5.4199219e-01   5.3222656e-01   5.2246094e-01   5.0781250e-01   4.9804688e-01   4.8828125e-01   4.7363281e-01   4.6875000e-01   4.5898438e-01   4.4921875e-01   4.4921875e-01   4.3945312e-01   4.3457031e-01   4.3945312e-01   4.2968750e-01   4.2968750e-01   4.2968750e-01   4.2480469e-01   4.1992188e-01   4.1503906e-01   4.1015625e-01   4.0039062e-01   3.9550781e-01   3.8574219e-01   3.8085938e-01   3.6621094e-01   3.6132812e-01   3.5156250e-01   3.4179688e-01   3.3203125e-01   3.2226562e-01   3.1250000e-01   3.0273438e-01   2.9296875e-01   2.8808594e-01   2.7832031e-01   2.6855469e-01   2.6855469e-01   2.5878906e-01   2.5390625e-01   2.4902344e-01   2.4414062e-01   2.3925781e-01   2.3437500e-01   2.3437500e-01   2.2949219e-01   2.2949219e-01   2.1972656e-01   2.1972656e-01   2.1484375e-01   2.1484375e-01   2.1972656e-01   2.2460938e-01   2.3925781e-01   2.5390625e-01   2.7832031e-01   3.1738281e-01   3.4179688e-01   3.7597656e-01   4.0527344e-01   4.3457031e-01   4.5898438e-01   4.7851562e-01   4.9804688e-01   5.0781250e-01   5.1757812e-01   5.2734375e-01   5.3222656e-01   5.3222656e-01   5.3710938e-01   5.3222656e-01   5.2734375e-01   5.2246094e-01   5.1269531e-01   5.0781250e-01   4.9316406e-01   4.8339844e-01   4.7363281e-01   4.5898438e-01   4.4921875e-01   4.4921875e-01   4.3945312e-01   4.3457031e-01   4.2968750e-01   4.2480469e-01   4.2480469e-01   4.1992188e-01   4.1992188e-01   4.1503906e-01   4.1503906e-01   4.1015625e-01   4.0527344e-01   4.0039062e-01   3.9550781e-01   3.8574219e-01   3.7597656e-01   3.6621094e-01   3.6132812e-01   3.5156250e-01   3.4179688e-01   3.3203125e-01   3.2226562e-01   3.1738281e-01   3.0273438e-01   2.9296875e-01   2.8320312e-01   2.7832031e-01   2.6855469e-01   2.6367188e-01   2.5878906e-01   2.5878906e-01   2.4902344e-01   2.4902344e-01   2.3925781e-01   2.3925781e-01   2.3925781e-01   2.2949219e-01   2.2949219e-01   2.2949219e-01   2.1972656e-01   2.1972656e-01   2.1972656e-01   2.1972656e-01   2.2460938e-01   2.3437500e-01   2.5390625e-01   2.7832031e-01   3.1250000e-01   3.4179688e-01   3.7597656e-01   4.1015625e-01   4.3457031e-01   4.6386719e-01   4.8828125e-01   5.0781250e-01   5.2734375e-01   5.4199219e-01   5.5175781e-01   5.6152344e-01   5.6640625e-01   5.7128906e-01   5.7617188e-01   5.7617188e-01   5.7617188e-01   5.7128906e-01   5.6152344e-01   5.5175781e-01   5.4199219e-01   5.3222656e-01   5.1757812e-01   5.0292969e-01   4.9316406e-01   4.8339844e-01   4.7363281e-01   4.6875000e-01   4.6386719e-01   4.5898438e-01   4.5410156e-01   4.5410156e-01   4.4921875e-01   4.4433594e-01   4.4433594e-01   4.3457031e-01   4.2968750e-01   4.2480469e-01   4.1992188e-01   4.1015625e-01   4.0039062e-01   3.9550781e-01   3.8085938e-01   3.7597656e-01   3.6621094e-01   3.5156250e-01   3.4179688e-01   3.3203125e-01   3.2226562e-01   3.1250000e-01   3.0273438e-01   2.9296875e-01   2.8320312e-01   2.7343750e-01   2.6855469e-01   2.5878906e-01   2.5390625e-01   2.4902344e-01   2.4414062e-01   2.4414062e-01   2.3925781e-01   2.3925781e-01   2.3437500e-01   2.3437500e-01   2.2949219e-01   2.2949219e-01   2.2460938e-01   2.2460938e-01   2.1972656e-01   2.1972656e-01   2.1972656e-01   2.2460938e-01   2.3437500e-01   2.5390625e-01   2.7832031e-01   3.1738281e-01   3.4667969e-01   3.8085938e-01   4.1503906e-01   4.4433594e-01   4.6875000e-01   4.9804688e-01   5.1269531e-01   5.3222656e-01   5.4199219e-01   5.5664062e-01   5.6640625e-01   5.7128906e-01   5.7617188e-01   5.7617188e-01   5.8105469e-01   5.7617188e-01   5.7128906e-01   5.7128906e-01   5.5664062e-01   5.5175781e-01   5.4199219e-01   5.2734375e-01   5.1757812e-01   5.0292969e-01   4.9316406e-01   4.8339844e-01   4.7851562e-01   4.7363281e-01   4.6875000e-01   4.6386719e-01   4.5898438e-01   4.5898438e-01   4.4921875e-01   4.4433594e-01   4.4433594e-01   4.3457031e-01   4.2480469e-01   4.1992188e-01   4.1015625e-01   4.0039062e-01   3.9062500e-01   3.8085938e-01   3.7109375e-01   3.6132812e-01   3.5156250e-01   3.3691406e-01   3.2714844e-01   3.1738281e-01   3.0761719e-01   2.9785156e-01   2.8808594e-01   2.7343750e-01   2.6855469e-01   2.6367188e-01   2.5390625e-01   2.4902344e-01   2.4414062e-01   2.3925781e-01   2.3437500e-01   2.2949219e-01   2.2949219e-01   2.2460938e-01   2.1972656e-01   2.1972656e-01   2.1484375e-01   2.0996094e-01   2.0996094e-01   2.0507812e-01   2.0507812e-01   2.0019531e-01   2.0019531e-01   2.0507812e-01   2.0996094e-01   2.3437500e-01   2.5390625e-01   2.8808594e-01   3.2226562e-01   3.5644531e-01   3.9062500e-01   4.1992188e-01   4.4921875e-01   4.6875000e-01   4.8828125e-01   5.0781250e-01   5.2246094e-01   5.2734375e-01   5.4199219e-01   5.4687500e-01   5.4687500e-01   5.4687500e-01   5.4687500e-01   5.4687500e-01   5.4199219e-01   5.3710938e-01   5.2734375e-01   5.1757812e-01   5.0292969e-01   4.9316406e-01   4.7851562e-01   4.6875000e-01   4.5898438e-01   4.5410156e-01   4.4921875e-01   4.4433594e-01   4.3945312e-01   4.3457031e-01   4.2968750e-01   4.2480469e-01   4.1992188e-01   4.1503906e-01   4.1015625e-01   4.0527344e-01   4.0039062e-01   3.9062500e-01   3.8574219e-01   3.7597656e-01   3.6621094e-01   3.5644531e-01   3.4667969e-01   3.3691406e-01   3.2714844e-01   3.1738281e-01   3.0273438e-01   2.9296875e-01   2.8320312e-01   2.7343750e-01   2.6855469e-01   2.5878906e-01   2.4902344e-01   2.4414062e-01   2.3925781e-01   2.3437500e-01   2.2949219e-01   2.2460938e-01   2.1972656e-01   2.1972656e-01   2.1484375e-01   2.1484375e-01   2.1484375e-01   2.0996094e-01   2.0507812e-01   2.0019531e-01   1.9531250e-01   1.9531250e-01   2.0019531e-01   2.0507812e-01   2.1972656e-01   2.3925781e-01   2.6367188e-01   2.9785156e-01   3.2714844e-01   3.6132812e-01   3.9550781e-01   4.1992188e-01   4.4921875e-01   4.7363281e-01   4.8828125e-01   5.0292969e-01   5.1757812e-01   5.2246094e-01   5.3222656e-01   5.3222656e-01   5.3710938e-01   5.3710938e-01   5.3222656e-01   5.2734375e-01   5.1757812e-01   5.1269531e-01   4.9804688e-01   4.8339844e-01   4.7851562e-01   4.6386719e-01   4.5410156e-01   4.4433594e-01   4.3457031e-01   4.2968750e-01   4.2480469e-01   4.2480469e-01   4.1992188e-01   4.1503906e-01   4.1015625e-01   4.1015625e-01   4.0527344e-01   4.0039062e-01   3.9550781e-01   3.9062500e-01   3.8574219e-01   3.7597656e-01   3.7109375e-01   3.6621094e-01   3.5644531e-01   3.4667969e-01   3.3691406e-01   3.2226562e-01   3.1738281e-01   3.0761719e-01   2.9785156e-01   2.8320312e-01   2.7343750e-01   2.6855469e-01   2.5878906e-01   2.5390625e-01   2.4414062e-01   2.4414062e-01   2.3437500e-01   2.3437500e-01   2.2949219e-01   2.2460938e-01   2.2460938e-01   2.1972656e-01   2.1972656e-01   2.1972656e-01   2.1484375e-01   2.0996094e-01   2.0996094e-01   2.0507812e-01   2.0507812e-01   2.0507812e-01   2.1484375e-01   2.1972656e-01   2.3925781e-01   2.6367188e-01   2.8808594e-01   3.2226562e-01   3.6132812e-01   3.9062500e-01   4.1992188e-01   4.4921875e-01   4.7363281e-01   5.0292969e-01   5.1757812e-01   5.3222656e-01   5.4199219e-01   5.5175781e-01   5.5664062e-01   5.6640625e-01   5.6152344e-01   5.6640625e-01   5.6152344e-01   5.5664062e-01   5.5175781e-01   5.3710938e-01   5.2734375e-01   5.1757812e-01   5.0292969e-01   4.9316406e-01   4.7851562e-01   4.7363281e-01   4.6386719e-01   4.5898438e-01   4.5410156e-01   4.4921875e-01   4.4921875e-01   4.4433594e-01   4.3945312e-01   4.3457031e-01   4.2968750e-01   4.2480469e-01   4.1992188e-01   4.1503906e-01   4.1015625e-01   4.0039062e-01   3.9550781e-01   3.8085938e-01   3.7597656e-01   3.6621094e-01   3.5156250e-01   3.4667969e-01   3.3203125e-01   3.2226562e-01   3.1738281e-01   3.0273438e-01   2.9296875e-01   2.8320312e-01   2.7343750e-01   2.6855469e-01   2.5878906e-01   2.5390625e-01   2.4902344e-01   2.4414062e-01   2.4414062e-01   2.3925781e-01   2.3925781e-01   2.2949219e-01   2.2460938e-01   2.2949219e-01   2.2460938e-01   2.1972656e-01   2.1972656e-01   2.1972656e-01   2.1484375e-01   2.1484375e-01   2.1484375e-01   2.1972656e-01   2.2949219e-01   2.4414062e-01   2.6855469e-01   2.9785156e-01   3.3203125e-01   3.7109375e-01   4.0039062e-01   4.3457031e-01   4.6386719e-01   4.8828125e-01   5.1269531e-01   5.2734375e-01   5.4199219e-01   5.5175781e-01   5.6152344e-01   5.7128906e-01   5.7617188e-01   5.8105469e-01   5.8105469e-01   5.8105469e-01   5.7617188e-01   5.7128906e-01   5.6152344e-01   5.5175781e-01   5.4199219e-01   5.2734375e-01   5.1757812e-01   5.0292969e-01   4.9316406e-01   4.8339844e-01   4.7851562e-01   4.7363281e-01   4.6875000e-01   4.6386719e-01   4.6386719e-01   4.5410156e-01   4.5410156e-01   4.4921875e-01   4.4433594e-01   4.3945312e-01   4.3457031e-01   4.2480469e-01   4.1992188e-01   4.1015625e-01   4.0039062e-01   3.9062500e-01   3.8085938e-01   3.7109375e-01   3.6132812e-01   3.5156250e-01   3.4179688e-01   3.2714844e-01   3.2226562e-01   3.0761719e-01   2.9785156e-01   2.8808594e-01   2.7832031e-01   2.7343750e-01   2.6855469e-01   2.5878906e-01   2.5390625e-01   2.4902344e-01   2.4414062e-01   2.3925781e-01   2.3437500e-01   2.2949219e-01   2.2949219e-01   2.2949219e-01   2.2460938e-01   2.1972656e-01   2.1484375e-01   2.0996094e-01   2.0996094e-01   2.0996094e-01   2.1484375e-01   2.1972656e-01   2.2949219e-01   2.4902344e-01   2.7343750e-01   3.0761719e-01   3.3691406e-01   3.7109375e-01   4.0039062e-01   4.3457031e-01   4.5898438e-01   4.8339844e-01   5.0292969e-01   5.1757812e-01   5.2734375e-01   5.4199219e-01   5.4687500e-01   5.5175781e-01   5.5175781e-01   5.5664062e-01   5.5175781e-01   5.4687500e-01   5.4199219e-01   5.3710938e-01   5.2734375e-01   5.1757812e-01   5.0292969e-01   4.9316406e-01   4.7851562e-01   4.7363281e-01   4.6386719e-01   4.5898438e-01   4.4921875e-01   4.4921875e-01   4.4433594e-01   4.3945312e-01   4.3945312e-01   4.3457031e-01   4.3457031e-01   4.2480469e-01   4.1992188e-01   4.1503906e-01   4.0527344e-01   4.0039062e-01   3.9550781e-01   3.8574219e-01   3.7597656e-01   3.6621094e-01   3.5644531e-01   3.4667969e-01   3.3691406e-01   3.2226562e-01   3.1250000e-01   3.0273438e-01   2.9296875e-01   2.8808594e-01   2.7832031e-01   2.6855469e-01   2.6367188e-01   2.5878906e-01   2.4902344e-01   2.4414062e-01   2.3925781e-01   2.3925781e-01   2.3437500e-01   2.3437500e-01   2.2949219e-01   2.2949219e-01   2.2460938e-01   2.2460938e-01   2.1972656e-01   2.1484375e-01   2.1484375e-01   2.1484375e-01   2.1484375e-01   2.2460938e-01   2.2949219e-01   2.4902344e-01   2.6855469e-01   2.9785156e-01   3.3203125e-01   3.6621094e-01   4.0039062e-01   4.2968750e-01   4.5410156e-01   4.7851562e-01   4.9804688e-01   5.0781250e-01   5.2246094e-01   5.2734375e-01   5.3710938e-01   5.4199219e-01   5.4199219e-01   5.4199219e-01   5.4199219e-01   5.3222656e-01   5.2734375e-01   5.1757812e-01   5.0781250e-01   4.9804688e-01   4.8339844e-01   4.7363281e-01   4.6386719e-01   4.5410156e-01   4.4433594e-01   4.3945312e-01   4.3457031e-01   4.2968750e-01   4.2480469e-01   4.2480469e-01   4.2480469e-01   4.1992188e-01   4.1503906e-01   4.1015625e-01   4.0527344e-01   4.0039062e-01   3.9550781e-01   3.9062500e-01   3.8085938e-01   3.7109375e-01   3.6132812e-01   3.5644531e-01   3.4179688e-01   3.3203125e-01   3.2226562e-01   3.1738281e-01   3.0273438e-01   2.9296875e-01   2.8320312e-01   2.7832031e-01   2.6367188e-01   2.5878906e-01   2.4902344e-01   2.4414062e-01   2.3925781e-01   2.3437500e-01   2.3437500e-01   2.3437500e-01   2.2949219e-01   2.2949219e-01   2.2460938e-01   2.2460938e-01   2.1972656e-01   2.1484375e-01   2.1484375e-01   2.0996094e-01   2.0507812e-01   2.0996094e-01   2.0996094e-01   2.2460938e-01   2.3437500e-01   2.5878906e-01   2.8808594e-01   3.2226562e-01   3.5644531e-01   3.9062500e-01   4.1992188e-01   4.5410156e-01   4.7851562e-01   4.9804688e-01   5.1757812e-01   5.3222656e-01   5.4199219e-01   5.5175781e-01   5.6152344e-01   5.6640625e-01   5.6640625e-01   5.7128906e-01   5.6640625e-01   5.6152344e-01   5.5664062e-01   5.4687500e-01   5.3710938e-01   5.2734375e-01   5.1757812e-01   5.0292969e-01   4.8828125e-01   4.7851562e-01   4.7363281e-01   4.6386719e-01   4.5898438e-01   4.5410156e-01   4.4921875e-01   4.4433594e-01   4.3945312e-01   4.3457031e-01   4.3457031e-01   4.2480469e-01   4.2480469e-01   4.1503906e-01   4.1015625e-01   4.0527344e-01   3.9550781e-01   3.8574219e-01   3.8085938e-01   3.7109375e-01   3.5644531e-01   3.4667969e-01   3.3691406e-01   3.2226562e-01   3.1738281e-01   3.0761719e-01   2.9785156e-01   2.8808594e-01   2.7832031e-01   2.6855469e-01   2.6367188e-01   2.5390625e-01   2.4902344e-01   2.4414062e-01   2.3925781e-01   2.3437500e-01   2.2949219e-01   2.2949219e-01   2.2949219e-01   2.2460938e-01   2.2460938e-01   2.1972656e-01   2.1972656e-01   2.1484375e-01   2.0996094e-01   2.1484375e-01   2.0996094e-01   2.0996094e-01   2.1484375e-01   2.2460938e-01   2.3925781e-01   2.6367188e-01   2.9296875e-01   3.3203125e-01   3.7109375e-01   4.0039062e-01   4.3457031e-01   4.6386719e-01   4.8828125e-01   5.1269531e-01   5.3222656e-01   5.4687500e-01   5.5664062e-01   5.6640625e-01   5.7617188e-01   5.7617188e-01   5.8105469e-01   5.8105469e-01   5.8105469e-01   5.7617188e-01   5.7128906e-01   5.6152344e-01   5.5175781e-01   5.3710938e-01   5.2734375e-01   5.1269531e-01   5.0292969e-01   4.9316406e-01   4.8339844e-01   4.7363281e-01   4.6875000e-01   4.6386719e-01   4.5898438e-01   4.5898438e-01   4.4921875e-01   4.4921875e-01   4.4433594e-01   4.3945312e-01   4.3457031e-01   4.2968750e-01   4.1992188e-01   4.1503906e-01   4.0527344e-01   3.9550781e-01   3.9062500e-01   3.7597656e-01   3.7109375e-01   3.5644531e-01   3.4179688e-01   3.3203125e-01   3.2226562e-01   3.0761719e-01   2.9785156e-01   2.8808594e-01   2.7832031e-01   2.6855469e-01   2.5878906e-01   2.5390625e-01   2.4902344e-01   2.3925781e-01   2.3925781e-01   2.2949219e-01   2.2949219e-01   2.2460938e-01   2.1972656e-01   2.1972656e-01   2.1484375e-01   2.1484375e-01   2.0996094e-01   2.0507812e-01   2.0507812e-01   2.0019531e-01   1.9531250e-01   1.9042969e-01   1.9042969e-01   1.9042969e-01   2.0019531e-01   2.0996094e-01   2.2949219e-01   2.5878906e-01   2.8808594e-01   3.2714844e-01   3.6132812e-01   3.9550781e-01   4.2968750e-01   4.5410156e-01   4.7851562e-01   5.0292969e-01   5.1757812e-01   5.3222656e-01   5.4199219e-01   5.5175781e-01   5.6152344e-01   5.6152344e-01   5.6152344e-01   5.6640625e-01   5.5664062e-01   5.5664062e-01   5.4199219e-01   5.3222656e-01   5.2246094e-01   5.0781250e-01   4.9804688e-01   4.8828125e-01   4.7363281e-01   4.6875000e-01   4.5898438e-01   4.5410156e-01   4.4921875e-01   4.4433594e-01   4.3945312e-01   4.3457031e-01   4.2968750e-01   4.2480469e-01   4.2480469e-01   4.1503906e-01   4.1503906e-01   4.0527344e-01   4.0039062e-01   3.9062500e-01   3.8085938e-01   3.7597656e-01   3.6621094e-01   3.5156250e-01   3.4179688e-01   3.3203125e-01   3.2226562e-01   3.1250000e-01   2.9785156e-01   2.9296875e-01   2.7832031e-01   2.7343750e-01   2.6367188e-01   2.5390625e-01   2.4414062e-01   2.3925781e-01   2.3437500e-01   2.3437500e-01   2.2949219e-01   2.2460938e-01   2.1972656e-01   2.1972656e-01   2.0996094e-01   2.1484375e-01   2.0996094e-01   2.0507812e-01   2.0019531e-01   2.0019531e-01   2.0019531e-01   1.9531250e-01   1.9531250e-01   2.0019531e-01   2.0507812e-01   2.2460938e-01   2.4414062e-01   2.7343750e-01   3.1250000e-01   3.4667969e-01   3.8085938e-01   4.1015625e-01   4.4433594e-01   4.6875000e-01   4.9316406e-01   5.0781250e-01   5.2246094e-01   5.3222656e-01   5.3710938e-01   5.4199219e-01   5.4199219e-01   5.4199219e-01   5.4199219e-01   5.3710938e-01   5.3222656e-01   5.2246094e-01   5.1269531e-01   4.9804688e-01   4.8828125e-01   4.7851562e-01   4.6386719e-01   4.5410156e-01   4.4921875e-01   4.3945312e-01   4.3457031e-01   4.2968750e-01   4.2480469e-01   4.2480469e-01   4.1992188e-01   4.1503906e-01   4.1503906e-01   4.1015625e-01   4.0527344e-01   4.0039062e-01   3.9550781e-01   3.9062500e-01   3.8574219e-01   3.7597656e-01   3.6132812e-01   3.5644531e-01   3.4667969e-01   3.3203125e-01   3.2714844e-01   3.1250000e-01   3.0273438e-01   2.9296875e-01   2.8320312e-01   2.7832031e-01   2.6367188e-01   2.5878906e-01   2.4902344e-01   2.4414062e-01   2.3925781e-01   2.3437500e-01   2.3437500e-01   2.2949219e-01   2.1972656e-01   2.1972656e-01   2.1972656e-01   2.1484375e-01   2.1484375e-01   2.0996094e-01   2.0996094e-01   2.0996094e-01   2.0507812e-01   2.0996094e-01   2.0996094e-01   2.2460938e-01   2.3437500e-01   2.5878906e-01   2.8808594e-01   3.2226562e-01   3.5156250e-01   3.9062500e-01   4.2480469e-01   4.4921875e-01   4.7851562e-01   4.9804688e-01   5.1269531e-01   5.2734375e-01   5.3710938e-01   5.4687500e-01   5.5175781e-01   5.5664062e-01   5.5664062e-01   5.5175781e-01   5.4687500e-01   5.4199219e-01   5.3222656e-01   5.1757812e-01   5.0781250e-01   4.9316406e-01   4.8339844e-01   4.6875000e-01   4.5898438e-01   4.5410156e-01   4.4433594e-01   4.3945312e-01   4.3457031e-01   4.2968750e-01   4.2968750e-01   4.2968750e-01   4.2480469e-01   4.2480469e-01   4.1992188e-01   4.1503906e-01   4.1503906e-01   4.0527344e-01   4.0039062e-01   3.9062500e-01   3.8574219e-01   3.8085938e-01   3.7109375e-01   3.6132812e-01   3.5156250e-01   3.4179688e-01   3.3203125e-01   3.2226562e-01   3.1250000e-01   3.0273438e-01   2.9296875e-01   2.8320312e-01   2.7343750e-01   2.6367188e-01   2.6367188e-01   2.5390625e-01   2.5390625e-01   2.4414062e-01   2.3925781e-01   2.3925781e-01   2.2949219e-01   2.2949219e-01   2.2949219e-01   2.2460938e-01   2.1972656e-01   2.1972656e-01   2.1972656e-01   2.1484375e-01   2.1484375e-01   2.1484375e-01   2.2460938e-01   2.3925781e-01   2.5878906e-01   2.8808594e-01   3.2226562e-01   3.5644531e-01   3.9550781e-01   4.2968750e-01   4.6386719e-01   4.8339844e-01   5.1269531e-01   5.3222656e-01   5.5175781e-01   5.6152344e-01   5.7128906e-01   5.8105469e-01   5.8593750e-01   5.9082031e-01   5.9082031e-01   5.9082031e-01   5.9082031e-01   5.8593750e-01   5.7617188e-01   5.6640625e-01   5.5664062e-01   5.4687500e-01   5.3222656e-01   5.2246094e-01   5.0781250e-01   5.0292969e-01   4.9316406e-01   4.8339844e-01   4.7851562e-01   4.7363281e-01   4.6875000e-01   4.6386719e-01   4.5898438e-01   4.5898438e-01   4.4921875e-01   4.4921875e-01   4.3945312e-01   4.3457031e-01   4.2968750e-01   4.1992188e-01   4.1015625e-01   4.0039062e-01   3.9062500e-01   3.8085938e-01   3.7597656e-01   3.6621094e-01   3.5644531e-01   3.4179688e-01   3.3203125e-01   3.2226562e-01   3.1250000e-01   3.0273438e-01   2.9296875e-01   2.8808594e-01   2.8320312e-01   2.7343750e-01   2.6855469e-01   2.6367188e-01   2.5878906e-01   2.5878906e-01   2.5878906e-01   2.5390625e-01   2.4902344e-01   2.4902344e-01   2.4414062e-01   2.3925781e-01   2.3925781e-01   2.3437500e-01   2.3437500e-01   2.2949219e-01   2.3437500e-01   2.3925781e-01   2.4902344e-01   2.5878906e-01   2.8808594e-01   3.1738281e-01   3.4667969e-01   3.8574219e-01   4.1503906e-01   4.4433594e-01   4.6875000e-01   4.9316406e-01   5.1269531e-01   5.2734375e-01   5.4199219e-01   5.5175781e-01   5.6152344e-01   5.6640625e-01   5.7128906e-01   5.7617188e-01   5.7617188e-01   5.7128906e-01   5.6640625e-01   5.6152344e-01   5.5664062e-01   5.4687500e-01   5.3222656e-01   5.2246094e-01   5.0781250e-01   4.9804688e-01   4.8828125e-01   4.7851562e-01   4.7363281e-01   4.6875000e-01   4.5898438e-01   4.5898438e-01   4.5410156e-01   4.4921875e-01   4.4433594e-01   4.3945312e-01   4.3457031e-01   4.2968750e-01   4.2480469e-01   4.1503906e-01   4.0527344e-01   3.9550781e-01   3.9062500e-01   3.8085938e-01   3.7109375e-01   3.6132812e-01   3.5156250e-01   3.4179688e-01   3.3203125e-01   3.2226562e-01   3.1250000e-01   2.9785156e-01   2.9296875e-01   2.8320312e-01   2.7343750e-01   2.6855469e-01   2.6367188e-01   2.5878906e-01   2.5390625e-01   2.4902344e-01   2.4414062e-01   2.3925781e-01   2.3925781e-01   2.3437500e-01   2.3437500e-01   2.2949219e-01   2.2949219e-01   2.2460938e-01   2.1972656e-01   2.1972656e-01   2.1972656e-01   2.1972656e-01   2.1972656e-01   2.2460938e-01   2.4414062e-01   2.6367188e-01   2.9296875e-01   3.2226562e-01   3.5644531e-01   3.9062500e-01   4.1503906e-01   4.3945312e-01   4.6875000e-01   4.8339844e-01   5.0292969e-01   5.1757812e-01   5.2246094e-01   5.3222656e-01   5.3710938e-01   5.3710938e-01   5.4199219e-01   5.4199219e-01   5.3710938e-01   5.3710938e-01   5.2734375e-01   5.1757812e-01   5.0781250e-01   4.9316406e-01   4.8339844e-01   4.6875000e-01   4.6386719e-01   4.5410156e-01   4.4433594e-01   4.3945312e-01   4.3945312e-01   4.2968750e-01   4.3457031e-01   4.2480469e-01   4.2480469e-01   4.2480469e-01   4.1503906e-01   4.1015625e-01   4.0527344e-01   4.0039062e-01   3.9550781e-01   3.8574219e-01   3.8085938e-01   3.7109375e-01   3.6621094e-01   3.5644531e-01   3.4667969e-01   3.3691406e-01   3.2714844e-01   3.1738281e-01   3.0761719e-01   2.9785156e-01   2.9296875e-01   2.8320312e-01   2.7832031e-01   2.6855469e-01   2.6367188e-01   2.5878906e-01   2.5390625e-01   2.4902344e-01   2.4414062e-01   2.3925781e-01   2.3925781e-01   2.3437500e-01   2.3437500e-01   2.3437500e-01   2.2949219e-01   2.2949219e-01   2.2460938e-01   2.2949219e-01   2.2460938e-01   2.2949219e-01   2.3925781e-01   2.5390625e-01   2.6855469e-01   2.9785156e-01   3.2226562e-01   3.6132812e-01   3.8574219e-01   4.1503906e-01   4.4433594e-01   4.6875000e-01   4.8339844e-01   5.0292969e-01   5.1269531e-01   5.2246094e-01   5.2734375e-01   5.3222656e-01   5.3710938e-01   5.3710938e-01   5.3710938e-01   5.3222656e-01   5.2246094e-01   5.1757812e-01   5.0781250e-01   4.9804688e-01   4.8339844e-01   4.7363281e-01   4.6386719e-01   4.5410156e-01   4.4433594e-01   4.3457031e-01   4.2968750e-01   4.2968750e-01   4.1992188e-01   4.1992188e-01   4.1503906e-01   4.1503906e-01   4.1015625e-01   4.0527344e-01   4.0527344e-01   4.0039062e-01   3.9062500e-01   3.9062500e-01   3.8085938e-01   3.7597656e-01   3.6621094e-01   3.5644531e-01   3.5156250e-01   3.3691406e-01   3.3203125e-01   3.1738281e-01   3.1250000e-01   2.9785156e-01   2.9296875e-01   2.8320312e-01   2.7343750e-01   2.6855469e-01   2.5878906e-01   2.5390625e-01   2.4902344e-01   2.4414062e-01   2.3925781e-01   2.3925781e-01   2.3925781e-01   2.3437500e-01   2.3437500e-01   2.2949219e-01   2.2949219e-01   2.2949219e-01   2.2949219e-01   2.2949219e-01   2.2460938e-01   2.1972656e-01   2.2460938e-01   2.2949219e-01   2.3925781e-01   2.5878906e-01   2.8320312e-01   3.1738281e-01   3.4667969e-01   3.7597656e-01   4.1015625e-01   4.3945312e-01   4.6875000e-01   4.9316406e-01   5.0781250e-01   5.2734375e-01   5.3710938e-01   5.4687500e-01   5.5664062e-01   5.6152344e-01   5.6640625e-01   5.7128906e-01   5.6640625e-01   5.6640625e-01   5.6152344e-01   5.5664062e-01   5.4687500e-01   5.3710938e-01   5.2246094e-01   5.1757812e-01   5.0292969e-01   4.8828125e-01   4.8339844e-01   4.7363281e-01   4.6875000e-01   4.6386719e-01   4.5898438e-01   4.5410156e-01   4.5410156e-01   4.4433594e-01   4.4433594e-01   4.3457031e-01   4.3457031e-01   4.2480469e-01   4.1992188e-01   4.1503906e-01   4.0527344e-01   3.9550781e-01   3.9062500e-01   3.7597656e-01   3.7109375e-01   3.6132812e-01   3.4667969e-01   3.4179688e-01   3.2714844e-01   3.2226562e-01   3.0761719e-01   2.9785156e-01   2.9296875e-01   2.8320312e-01   2.7343750e-01   2.6855469e-01   2.6367188e-01   2.5878906e-01   2.5390625e-01   2.4902344e-01   2.4414062e-01   2.3925781e-01   2.3925781e-01   2.3437500e-01   2.2949219e-01   2.2949219e-01   2.2949219e-01   2.1972656e-01   2.1972656e-01   2.1484375e-01   2.0996094e-01   2.0996094e-01   2.0996094e-01   2.1484375e-01   2.2949219e-01   2.4902344e-01   2.7343750e-01   3.0761719e-01   3.4179688e-01   3.7109375e-01   4.0527344e-01   4.3457031e-01   4.6386719e-01   4.8339844e-01   5.0292969e-01   5.1757812e-01   5.3222656e-01   5.4199219e-01   5.5175781e-01   5.5175781e-01   5.6152344e-01   5.5664062e-01   5.5664062e-01   5.5664062e-01   5.5175781e-01   5.4199219e-01   5.3710938e-01   5.2246094e-01   5.1269531e-01   5.0292969e-01   4.8828125e-01   4.7851562e-01   4.6875000e-01   4.6386719e-01   4.5410156e-01   4.4921875e-01   4.4433594e-01   4.3945312e-01   4.3457031e-01   4.2968750e-01   4.2968750e-01   4.2480469e-01   4.1503906e-01   4.1015625e-01   4.0527344e-01   3.9550781e-01   3.9062500e-01   3.8085938e-01   3.7109375e-01   3.6132812e-01   3.5156250e-01   3.4179688e-01   3.3203125e-01   3.2226562e-01   3.1250000e-01   2.9785156e-01   2.8808594e-01   2.7832031e-01   2.6855469e-01   2.6367188e-01   2.5390625e-01   2.4414062e-01   2.3925781e-01   2.3437500e-01   2.3437500e-01   2.2949219e-01   2.2460938e-01   2.2460938e-01   2.1972656e-01   2.1484375e-01   2.1972656e-01   2.1484375e-01   2.0996094e-01   2.0996094e-01   2.0996094e-01   2.0507812e-01   2.0507812e-01   2.0507812e-01   2.0507812e-01   2.1484375e-01   2.2460938e-01   2.4902344e-01   2.7832031e-01   3.0761719e-01   3.4667969e-01   3.7597656e-01   4.1015625e-01   4.3945312e-01   4.6386719e-01   4.8339844e-01   5.0292969e-01   5.1269531e-01   5.2734375e-01   5.3222656e-01   5.4199219e-01   5.4199219e-01   5.4199219e-01   5.3710938e-01   5.3710938e-01   5.3222656e-01   5.2734375e-01   5.1269531e-01   5.0292969e-01   4.8828125e-01   4.7363281e-01   4.6386719e-01   4.5410156e-01   4.4433594e-01   4.3457031e-01   4.2968750e-01   4.2480469e-01   4.2480469e-01   4.1992188e-01   4.1503906e-01   4.1503906e-01   4.1015625e-01   4.0527344e-01   4.0527344e-01   4.0039062e-01   3.9550781e-01   3.8574219e-01   3.8085938e-01   3.7109375e-01   3.6132812e-01   3.5644531e-01   3.4667969e-01   3.3691406e-01   3.2714844e-01   3.1738281e-01   3.0761719e-01   2.9785156e-01   2.8808594e-01   2.7832031e-01   2.7343750e-01   2.6367188e-01   2.5878906e-01   2.4902344e-01   2.4414062e-01   2.4414062e-01   2.3925781e-01   2.2949219e-01   2.2949219e-01   2.2460938e-01   2.2460938e-01   2.1972656e-01   2.1972656e-01   2.1484375e-01   2.0996094e-01   2.0996094e-01   2.0507812e-01   2.0507812e-01   2.1484375e-01   2.1972656e-01   2.3437500e-01   2.5878906e-01   2.8808594e-01   3.2714844e-01   3.5644531e-01   3.9550781e-01   4.2480469e-01   4.4921875e-01   4.7363281e-01   4.8828125e-01   5.0781250e-01   5.1757812e-01   5.2734375e-01   5.3710938e-01   5.3710938e-01   5.3710938e-01   5.3710938e-01   5.3222656e-01   5.2734375e-01   5.1757812e-01   5.0781250e-01   4.9804688e-01   4.8828125e-01   4.7363281e-01   4.6386719e-01   4.4921875e-01   4.3945312e-01   4.2968750e-01   4.2480469e-01   4.1992188e-01   4.1992188e-01   4.1503906e-01   4.1503906e-01   4.1015625e-01   4.1015625e-01   4.0527344e-01   4.0527344e-01   4.0039062e-01   3.9550781e-01   3.9062500e-01   3.8085938e-01   3.7597656e-01   3.7109375e-01   3.6621094e-01   3.5644531e-01   3.4179688e-01   3.3203125e-01   3.2226562e-01   3.1250000e-01   3.0273438e-01   2.8808594e-01   2.8320312e-01   2.6855469e-01   2.5878906e-01   2.5390625e-01   2.4414062e-01   2.4414062e-01   2.3437500e-01   2.2460938e-01   2.2460938e-01   2.1972656e-01   2.1972656e-01   2.1484375e-01   2.0996094e-01   2.0996094e-01   2.0996094e-01   2.0507812e-01   2.0507812e-01   2.0019531e-01   2.0019531e-01   2.0507812e-01   2.0507812e-01   2.1484375e-01   2.2949219e-01   2.5390625e-01   2.8320312e-01   3.1738281e-01   3.5156250e-01   3.9062500e-01   4.2480469e-01   4.5410156e-01   4.7851562e-01   5.0292969e-01   5.1757812e-01   5.3710938e-01   5.4687500e-01   5.6152344e-01   5.6640625e-01   5.7128906e-01   5.7617188e-01   5.7617188e-01   5.7128906e-01   5.7128906e-01   5.6152344e-01   5.6152344e-01   5.4687500e-01   5.3222656e-01   5.2246094e-01   5.0781250e-01   4.9316406e-01   4.8339844e-01   4.7363281e-01   4.6875000e-01   4.5898438e-01   4.5410156e-01   4.4921875e-01   4.4433594e-01   4.4433594e-01   4.3945312e-01   4.3457031e-01   4.2968750e-01   4.2480469e-01   4.1992188e-01   4.1503906e-01   4.0527344e-01   4.0039062e-01   3.9062500e-01   3.8085938e-01   3.7109375e-01   3.6132812e-01   3.5156250e-01   3.4179688e-01   3.2714844e-01   3.1738281e-01   3.0761719e-01   2.9785156e-01   2.8808594e-01   2.7343750e-01   2.6855469e-01   2.5878906e-01   2.4902344e-01   2.4414062e-01   2.3925781e-01   2.2949219e-01   2.2949219e-01   2.2460938e-01   2.1972656e-01   2.1972656e-01   2.1484375e-01   2.0996094e-01   2.0996094e-01   2.0507812e-01   2.0507812e-01   2.0019531e-01   2.0019531e-01   2.0019531e-01   1.9531250e-01   2.0019531e-01   2.0996094e-01   2.2460938e-01   2.5390625e-01   2.8808594e-01   3.2226562e-01   3.5644531e-01   3.9550781e-01   4.2968750e-01   4.5898438e-01   4.8339844e-01   5.0781250e-01   5.2734375e-01   5.3710938e-01   5.5175781e-01   5.5664062e-01   5.6640625e-01   5.7128906e-01   5.7128906e-01   5.7128906e-01   5.6640625e-01   5.6152344e-01   5.5664062e-01   5.4687500e-01   5.3710938e-01   5.2246094e-01   5.0781250e-01   4.9804688e-01   4.8339844e-01   4.7363281e-01   4.6875000e-01   4.5898438e-01   4.4921875e-01   4.4433594e-01   4.3945312e-01   4.3457031e-01   4.2968750e-01   4.2968750e-01   4.1992188e-01   4.1992188e-01   4.1503906e-01   4.0527344e-01   3.9550781e-01   3.9062500e-01   3.8085938e-01   3.7597656e-01   3.6132812e-01   3.5156250e-01   3.4179688e-01   3.3203125e-01   3.1738281e-01   3.0761719e-01   2.9785156e-01   2.8320312e-01   2.7832031e-01   2.6367188e-01   2.5390625e-01   2.4902344e-01   2.3437500e-01   2.2949219e-01   2.2460938e-01   2.1972656e-01   2.1484375e-01   2.0996094e-01   2.0507812e-01   2.0019531e-01   2.0019531e-01   2.0019531e-01   1.9531250e-01   1.9531250e-01   1.9042969e-01   1.9042969e-01   1.8066406e-01   1.8066406e-01   1.8066406e-01   1.8066406e-01   1.8554688e-01   1.9042969e-01   2.0507812e-01   2.2949219e-01   2.5878906e-01   2.9296875e-01   3.3203125e-01   3.6621094e-01   4.0039062e-01   4.3457031e-01   4.6875000e-01   4.8828125e-01   5.1269531e-01   5.2734375e-01   5.3710938e-01   5.4199219e-01   5.5175781e-01   5.5175781e-01   5.5664062e-01   5.5175781e-01   5.4687500e-01   5.4199219e-01   5.3222656e-01   5.2246094e-01   5.0781250e-01   4.9316406e-01   4.7851562e-01   4.6875000e-01   4.5898438e-01   4.4921875e-01   4.3457031e-01   4.2968750e-01   4.2480469e-01   4.1992188e-01   4.1503906e-01   4.1503906e-01   4.1015625e-01   4.0527344e-01   4.0527344e-01   4.0039062e-01   3.9550781e-01   3.9062500e-01   3.8574219e-01   3.7597656e-01   3.7109375e-01   3.6621094e-01   3.5156250e-01   3.4179688e-01   3.3203125e-01   3.2226562e-01   3.1738281e-01   3.0273438e-01   2.9296875e-01   2.8320312e-01   2.6855469e-01   2.6367188e-01   2.5390625e-01   2.4414062e-01   2.3925781e-01   2.2949219e-01   2.2460938e-01   2.1972656e-01   2.1484375e-01   2.1484375e-01   2.0996094e-01   2.0019531e-01   2.0019531e-01   1.9531250e-01   1.9531250e-01   1.9531250e-01   1.9042969e-01   1.9042969e-01   1.8554688e-01   1.8554688e-01   1.9531250e-01   2.0996094e-01   2.2949219e-01   2.5390625e-01   2.8808594e-01   3.2226562e-01   3.5644531e-01   3.9550781e-01   4.2968750e-01   4.5410156e-01   4.8339844e-01   5.0292969e-01   5.2246094e-01   5.3222656e-01   5.4199219e-01   5.4687500e-01   5.5175781e-01   5.5175781e-01   5.4687500e-01   5.4687500e-01   5.3710938e-01   5.3222656e-01   5.2246094e-01   5.0781250e-01   4.9316406e-01   4.7851562e-01   4.6386719e-01   4.5410156e-01   4.4433594e-01   4.3457031e-01   4.2480469e-01   4.1992188e-01   4.1503906e-01   4.1015625e-01   4.1015625e-01   4.1015625e-01   4.0527344e-01   4.0039062e-01   4.0527344e-01   3.9550781e-01   3.9062500e-01   3.8574219e-01   3.8085938e-01   3.7109375e-01   3.6132812e-01   3.5644531e-01   3.4667969e-01   3.3691406e-01   3.2714844e-01   3.1738281e-01   3.0273438e-01   2.9296875e-01   2.7832031e-01   2.6855469e-01   2.5878906e-01   2.4902344e-01   2.4414062e-01   2.3925781e-01   2.2949219e-01   2.2460938e-01   2.1972656e-01   2.1484375e-01   2.0996094e-01   2.0507812e-01   2.0507812e-01   2.0019531e-01   2.0019531e-01   1.9531250e-01   1.9042969e-01   1.9042969e-01   1.8554688e-01   1.8554688e-01   1.9531250e-01   1.9531250e-01   2.1484375e-01   2.3925781e-01   2.6855469e-01   3.0273438e-01   3.4667969e-01   3.8574219e-01   4.2480469e-01   4.5410156e-01   4.8339844e-01   5.1269531e-01   5.3222656e-01   5.5175781e-01   5.6640625e-01   5.7617188e-01   5.8105469e-01   5.9082031e-01   5.9082031e-01   5.9082031e-01   5.9082031e-01   5.8105469e-01   5.7617188e-01   5.6640625e-01   5.5175781e-01   5.4199219e-01   5.2734375e-01   5.1269531e-01   5.0292969e-01   4.8828125e-01   4.7363281e-01   4.6875000e-01   4.6386719e-01   4.5898438e-01   4.5410156e-01   4.4921875e-01   4.4433594e-01   4.4433594e-01   4.4433594e-01   4.3457031e-01   4.3457031e-01   4.2968750e-01   4.2480469e-01   4.1992188e-01   4.0527344e-01   4.0039062e-01   3.9062500e-01   3.8085938e-01   3.7109375e-01   3.6132812e-01   3.5156250e-01   3.4179688e-01   3.2714844e-01   3.2226562e-01   3.0761719e-01   2.9785156e-01   2.9296875e-01   2.7832031e-01   2.6855469e-01   2.6367188e-01   2.5878906e-01   2.4902344e-01   2.4902344e-01   2.4414062e-01   2.3925781e-01   2.3437500e-01   2.2949219e-01   2.2460938e-01   2.2460938e-01   2.2460938e-01   2.1972656e-01   2.1484375e-01   2.1484375e-01   2.1484375e-01   2.1972656e-01   2.3437500e-01   2.4902344e-01   2.7343750e-01   3.0273438e-01   3.4179688e-01   3.7597656e-01   4.1015625e-01   4.4433594e-01   4.7851562e-01   5.0292969e-01   5.2246094e-01   5.4199219e-01   5.5664062e-01   5.7128906e-01   5.8105469e-01   5.8593750e-01   5.9082031e-01   5.9082031e-01   5.9082031e-01   5.9082031e-01   5.8593750e-01   5.8105469e-01   5.6640625e-01   5.5664062e-01   5.4687500e-01   5.3222656e-01   5.1757812e-01   5.0781250e-01   4.9804688e-01   4.8828125e-01   4.7851562e-01   4.7363281e-01   4.6875000e-01   4.6386719e-01   4.6386719e-01   4.5898438e-01   4.5410156e-01   4.4921875e-01   4.4433594e-01   4.3945312e-01   4.3457031e-01   4.2480469e-01   4.1992188e-01   4.1015625e-01   4.0527344e-01   3.9062500e-01   3.8574219e-01   3.7597656e-01   3.6132812e-01   3.5644531e-01   3.4179688e-01   3.3203125e-01   3.1738281e-01   3.1250000e-01   2.9785156e-01   2.8320312e-01   2.7832031e-01   2.6855469e-01   2.6367188e-01   2.5878906e-01   2.4902344e-01   2.4414062e-01   2.4414062e-01   2.3925781e-01   2.3925781e-01   2.3437500e-01   2.2949219e-01   2.2460938e-01   2.2460938e-01   2.1972656e-01   2.1972656e-01   2.1484375e-01   2.1484375e-01   2.1484375e-01   2.1972656e-01   2.2949219e-01   2.4414062e-01   2.6855469e-01   2.9785156e-01   3.2714844e-01   3.6621094e-01   4.0039062e-01   4.3457031e-01   4.6386719e-01   4.8339844e-01   5.0781250e-01   5.2734375e-01   5.3710938e-01   5.5175781e-01   5.5664062e-01   5.6152344e-01   5.6640625e-01   5.7128906e-01   5.6640625e-01   5.6152344e-01   5.5664062e-01   5.4687500e-01   5.3710938e-01   5.2734375e-01   5.1269531e-01   4.9804688e-01   4.8828125e-01   4.7363281e-01   4.6875000e-01   4.5898438e-01   4.5410156e-01   4.4921875e-01   4.4921875e-01   4.4433594e-01   4.3945312e-01   4.3457031e-01   4.3457031e-01   4.2968750e-01   4.2480469e-01   4.1992188e-01   4.1503906e-01   4.0527344e-01   3.9550781e-01   3.9062500e-01   3.8085938e-01   3.7597656e-01   3.6621094e-01   3.5644531e-01   3.4667969e-01   3.3203125e-01   3.2226562e-01   3.1738281e-01   3.0273438e-01   2.9296875e-01   2.8808594e-01   2.7343750e-01   2.6855469e-01   2.6367188e-01   2.5390625e-01   2.4902344e-01   2.4414062e-01   2.3925781e-01   2.3925781e-01   2.3437500e-01   2.3437500e-01   2.2949219e-01   2.2460938e-01   2.1972656e-01   2.1972656e-01   2.1484375e-01   2.1484375e-01   2.0996094e-01   2.1484375e-01   2.1972656e-01   2.2949219e-01   2.4902344e-01   2.6855469e-01   2.9785156e-01   3.3691406e-01   3.6621094e-01   4.0527344e-01   4.3457031e-01   4.5898438e-01   4.8339844e-01   5.0292969e-01   5.1757812e-01   5.2734375e-01   5.3710938e-01   5.4687500e-01   5.4199219e-01   5.4687500e-01   5.4687500e-01   5.4199219e-01   5.3710938e-01   5.2734375e-01   5.1757812e-01   5.0781250e-01   4.9316406e-01   4.7851562e-01   4.6875000e-01   4.5898438e-01   4.4921875e-01   4.4433594e-01   4.3457031e-01   4.2968750e-01   4.2480469e-01   4.1992188e-01   4.2480469e-01   4.1992188e-01   4.1503906e-01   4.1503906e-01   4.1015625e-01   4.0527344e-01   4.0039062e-01   3.9550781e-01   3.9062500e-01   3.8085938e-01   3.7109375e-01   3.6621094e-01   3.5644531e-01   3.4667969e-01   3.3691406e-01   3.2226562e-01   3.1738281e-01   3.0761719e-01   2.9296875e-01   2.8808594e-01   2.7343750e-01   2.6855469e-01   2.5878906e-01   2.5390625e-01   2.4902344e-01   2.3925781e-01   2.3925781e-01   2.3437500e-01   2.2460938e-01   2.2460938e-01   2.1972656e-01   2.2460938e-01   2.1484375e-01   2.1484375e-01   2.0996094e-01   2.0996094e-01   2.0507812e-01   2.0507812e-01   2.0996094e-01   2.1484375e-01   2.2949219e-01   2.4902344e-01   2.7832031e-01   3.0761719e-01   3.4667969e-01   3.8574219e-01   4.1503906e-01   4.4921875e-01   4.7851562e-01   5.0292969e-01   5.2246094e-01   5.3710938e-01   5.5175781e-01   5.6152344e-01   5.6640625e-01   5.7128906e-01   5.7617188e-01   5.7617188e-01   5.7617188e-01   5.7617188e-01   5.6640625e-01   5.6152344e-01   5.5175781e-01   5.3710938e-01   5.2734375e-01   5.1269531e-01   4.9804688e-01   4.8828125e-01   4.7851562e-01   4.7363281e-01   4.6875000e-01   4.5898438e-01   4.5898438e-01   4.5410156e-01   4.4921875e-01   4.4433594e-01   4.3945312e-01   4.3945312e-01   4.3457031e-01   4.2480469e-01   4.1992188e-01   4.1503906e-01   4.0527344e-01   4.0039062e-01   3.8574219e-01   3.8085938e-01   3.6621094e-01   3.5644531e-01   3.4667969e-01   3.3691406e-01   3.2226562e-01   3.1738281e-01   3.0273438e-01   2.9296875e-01   2.8808594e-01   2.7832031e-01   2.6855469e-01   2.5878906e-01   2.5390625e-01   2.5390625e-01   2.4414062e-01   2.3925781e-01   2.3925781e-01   2.3437500e-01   2.3437500e-01   2.2949219e-01   2.2460938e-01   2.2949219e-01   2.1972656e-01   2.1972656e-01   2.1972656e-01   2.1484375e-01   2.0996094e-01   2.0996094e-01   2.0996094e-01   2.1972656e-01   2.3437500e-01   2.5878906e-01   2.8320312e-01   3.1738281e-01   3.5644531e-01   3.9062500e-01   4.2480469e-01   4.5898438e-01   4.8339844e-01   5.0781250e-01   5.2734375e-01   5.4687500e-01   5.6152344e-01   5.7128906e-01   5.7617188e-01   5.8105469e-01   5.8105469e-01   5.8593750e-01   5.8593750e-01   5.8105469e-01   5.7617188e-01   5.6152344e-01   5.5175781e-01   5.4687500e-01   5.3222656e-01   5.1757812e-01   5.0292969e-01   4.9316406e-01   4.8339844e-01   4.7363281e-01   4.7363281e-01   4.6875000e-01   4.5898438e-01   4.5410156e-01   4.5410156e-01   4.4921875e-01   4.4433594e-01   4.3945312e-01   4.3457031e-01   4.2968750e-01   4.2480469e-01   4.1503906e-01   4.0527344e-01   3.9550781e-01   3.8574219e-01   3.7597656e-01   3.6621094e-01   3.6132812e-01   3.4667969e-01   3.3691406e-01   3.2714844e-01   3.1738281e-01   3.0273438e-01   2.9785156e-01   2.8808594e-01   2.7832031e-01   2.6855469e-01   2.5878906e-01   2.5390625e-01   2.4414062e-01   2.4414062e-01   2.3925781e-01   2.3437500e-01   2.2949219e-01   2.2949219e-01   2.2460938e-01   2.2460938e-01   2.1972656e-01   2.1484375e-01   2.0996094e-01   2.0507812e-01   2.0507812e-01   2.0019531e-01   2.0019531e-01   2.0507812e-01   2.0996094e-01   2.1972656e-01   2.3925781e-01   2.6367188e-01   2.9785156e-01   3.3691406e-01   3.7109375e-01   4.0527344e-01   4.3457031e-01   4.6386719e-01   4.8339844e-01   5.0781250e-01   5.2734375e-01   5.3710938e-01   5.5175781e-01   5.5664062e-01   5.6152344e-01   5.6152344e-01   5.6152344e-01   5.6152344e-01   5.5664062e-01   5.5175781e-01   5.3710938e-01   5.2734375e-01   5.1269531e-01   4.9804688e-01   4.8339844e-01   4.7363281e-01   4.6386719e-01   4.5410156e-01   4.4921875e-01   4.4433594e-01   4.3457031e-01   4.2968750e-01   4.2968750e-01   4.2480469e-01   4.2480469e-01   4.1992188e-01   4.1503906e-01   4.1015625e-01   4.0039062e-01   3.9550781e-01   3.9062500e-01   3.8085938e-01   3.7109375e-01   3.6132812e-01   3.5156250e-01   3.4667969e-01   3.3203125e-01   3.2226562e-01   3.1250000e-01   3.0273438e-01   2.9296875e-01   2.8320312e-01   2.7343750e-01   2.6367188e-01   2.5390625e-01   2.4902344e-01   2.3925781e-01   2.3437500e-01   2.2949219e-01   2.2460938e-01   2.1972656e-01   2.1972656e-01   2.1484375e-01   2.1484375e-01   2.0996094e-01   2.0507812e-01   2.0507812e-01   1.9531250e-01   2.0019531e-01   1.9531250e-01   1.9042969e-01   1.9042969e-01   1.9042969e-01   1.9531250e-01   2.0996094e-01   2.2949219e-01   2.5390625e-01   2.8320312e-01   3.1738281e-01   3.5644531e-01   3.9062500e-01   4.2480469e-01   4.4921875e-01   4.7363281e-01   4.9316406e-01   5.1269531e-01   5.2246094e-01   5.3222656e-01   5.4199219e-01   5.4199219e-01   5.4199219e-01   5.4199219e-01   5.3710938e-01   5.3222656e-01   5.2246094e-01   5.0781250e-01   4.9804688e-01   4.8339844e-01   4.7363281e-01   4.6386719e-01   4.4921875e-01   4.4433594e-01   4.3457031e-01   4.2480469e-01   4.1992188e-01   4.1503906e-01   4.1503906e-01   4.1015625e-01   4.0527344e-01   4.0527344e-01   4.0039062e-01   4.0039062e-01   3.9550781e-01   3.8574219e-01   3.8085938e-01   3.7597656e-01   3.7109375e-01   3.6132812e-01   3.5156250e-01   3.4179688e-01   3.3203125e-01   3.2226562e-01   3.1738281e-01   3.0273438e-01   2.9296875e-01   2.8320312e-01   2.7343750e-01   2.6367188e-01   2.5390625e-01   2.4902344e-01   2.3925781e-01   2.3437500e-01   2.2949219e-01   2.2460938e-01   2.1972656e-01   2.1484375e-01   2.0996094e-01   2.0996094e-01   2.0507812e-01   2.0019531e-01   2.0019531e-01   2.0019531e-01   1.9531250e-01   1.9531250e-01   1.9042969e-01   1.9042969e-01   1.9042969e-01   2.0019531e-01   2.1484375e-01   2.3925781e-01   2.6367188e-01   2.9785156e-01   3.3203125e-01   3.7109375e-01   4.1015625e-01   4.4433594e-01   4.7363281e-01   4.9316406e-01   5.1269531e-01   5.3222656e-01   5.4199219e-01   5.5175781e-01   5.6152344e-01   5.6152344e-01   5.6152344e-01   5.6152344e-01   5.5664062e-01   5.4687500e-01   5.4199219e-01   5.2734375e-01   5.1757812e-01   5.0292969e-01   4.8828125e-01   4.7363281e-01   4.6386719e-01   4.5410156e-01   4.4921875e-01   4.3945312e-01   4.3945312e-01   4.3457031e-01   4.2968750e-01   4.2968750e-01   4.2480469e-01   4.2480469e-01   4.1992188e-01   4.1992188e-01   4.1503906e-01   4.1015625e-01   4.0039062e-01   4.0039062e-01   3.9062500e-01   3.8085938e-01   3.7109375e-01   3.6621094e-01   3.5644531e-01   3.4667969e-01   3.3691406e-01   3.2226562e-01   3.1738281e-01   3.0273438e-01   2.9296875e-01   2.8320312e-01   2.7343750e-01   2.6367188e-01   2.5878906e-01   2.4902344e-01   2.3925781e-01   2.3437500e-01   2.2949219e-01   2.2460938e-01   2.1972656e-01   2.1972656e-01   2.1484375e-01   2.1484375e-01   2.0996094e-01   2.0507812e-01   2.0507812e-01   2.0507812e-01   2.0019531e-01   2.0019531e-01   1.9531250e-01   2.0019531e-01   2.0019531e-01   2.0507812e-01   2.2460938e-01   2.4902344e-01   2.8320312e-01   3.1738281e-01   3.5156250e-01   3.9550781e-01   4.2968750e-01   4.5898438e-01   4.8828125e-01   5.1269531e-01   5.3710938e-01   5.4687500e-01   5.6152344e-01   5.7128906e-01   5.8105469e-01   5.8593750e-01   5.9082031e-01   5.8593750e-01   5.8593750e-01   5.8105469e-01   5.7128906e-01   5.6640625e-01   5.5175781e-01   5.4199219e-01   5.2734375e-01   5.1269531e-01   4.9804688e-01   4.8828125e-01   4.8339844e-01   4.7363281e-01   4.6386719e-01   4.6386719e-01   4.5410156e-01   4.4921875e-01   4.4921875e-01   4.4433594e-01   4.3945312e-01   4.3457031e-01   4.2968750e-01   4.2480469e-01   4.1992188e-01   4.1015625e-01   4.0039062e-01   3.9550781e-01   3.8085938e-01   3.7597656e-01   3.6621094e-01   3.5156250e-01   3.4179688e-01   3.2714844e-01   3.2226562e-01   3.1250000e-01   2.9785156e-01   2.9296875e-01   2.7832031e-01   2.6855469e-01   2.5878906e-01   2.4902344e-01   2.4414062e-01   2.3925781e-01   2.2949219e-01   2.2949219e-01   2.2460938e-01   2.1972656e-01   2.1484375e-01   2.0996094e-01   2.0996094e-01   2.0996094e-01   2.0507812e-01   2.0019531e-01   2.0019531e-01   1.9531250e-01   1.9531250e-01   1.9042969e-01   1.9531250e-01   2.0507812e-01   2.1484375e-01   2.3925781e-01   2.6855469e-01   3.0273438e-01   3.4179688e-01   3.8085938e-01   4.1992188e-01   4.5410156e-01   4.7851562e-01   5.0781250e-01   5.2246094e-01   5.4199219e-01   5.5664062e-01   5.6152344e-01   5.7128906e-01   5.7128906e-01   5.7128906e-01   5.7128906e-01   5.6640625e-01   5.6152344e-01   5.5175781e-01   5.4199219e-01   5.2734375e-01   5.1269531e-01   5.0292969e-01   4.8828125e-01   4.7363281e-01   4.6386719e-01   4.5898438e-01   4.4921875e-01   4.3945312e-01   4.3457031e-01   4.2968750e-01   4.2968750e-01   4.2480469e-01   4.1992188e-01   4.1992188e-01   4.1015625e-01   4.0527344e-01   4.0527344e-01   3.9550781e-01   3.9062500e-01   3.8085938e-01   3.7109375e-01   3.6621094e-01   3.5156250e-01   3.4179688e-01   3.3203125e-01   3.1738281e-01   3.0761719e-01   2.9785156e-01   2.8808594e-01   2.7832031e-01   2.6855469e-01   2.5878906e-01   2.5390625e-01   2.3925781e-01   2.3437500e-01   2.2949219e-01   2.2460938e-01   2.1972656e-01   2.1484375e-01   2.1484375e-01   2.0996094e-01   2.0507812e-01   2.0507812e-01   1.9531250e-01   1.9531250e-01   1.9531250e-01   1.9042969e-01   1.9042969e-01   1.8554688e-01   1.9042969e-01   1.9531250e-01   2.0996094e-01   2.2949219e-01   2.5390625e-01   2.8808594e-01   3.2714844e-01   3.6621094e-01   3.9550781e-01   4.2968750e-01   4.6386719e-01   4.8339844e-01   5.0292969e-01   5.2246094e-01   5.3222656e-01   5.4199219e-01   5.4687500e-01   5.5175781e-01   5.5175781e-01   5.5175781e-01   5.4687500e-01   5.4199219e-01   5.3222656e-01   5.1757812e-01   5.0781250e-01   4.9316406e-01   4.7851562e-01   4.6386719e-01   4.5410156e-01   4.4433594e-01   4.3457031e-01   4.2968750e-01   4.1992188e-01   4.2480469e-01   4.1992188e-01   4.1503906e-01   4.1015625e-01   4.1015625e-01   4.1015625e-01   4.0527344e-01   4.0039062e-01   3.9550781e-01   3.9062500e-01   3.8085938e-01   3.8085938e-01   3.6621094e-01   3.6132812e-01   3.5156250e-01   3.4179688e-01   3.3203125e-01   3.2226562e-01   3.0761719e-01   2.9785156e-01   2.8808594e-01   2.7832031e-01   2.6855469e-01   2.5878906e-01   2.5390625e-01   2.4414062e-01   2.3925781e-01   2.3437500e-01   2.2949219e-01   2.2460938e-01   2.1972656e-01   2.1484375e-01   2.1484375e-01   2.0996094e-01   2.0507812e-01   2.0507812e-01   2.0019531e-01   2.0019531e-01   2.0019531e-01   2.0019531e-01   2.0019531e-01   2.0996094e-01   2.2949219e-01   2.4414062e-01   2.7343750e-01   3.0761719e-01   3.4667969e-01   3.7597656e-01   4.1503906e-01   4.4921875e-01   4.7851562e-01   5.0292969e-01   5.1757812e-01   5.3222656e-01   5.4687500e-01   5.5175781e-01   5.5664062e-01   5.6152344e-01   5.6152344e-01   5.6152344e-01   5.5175781e-01   5.4687500e-01   5.3710938e-01   5.2734375e-01   5.1269531e-01   4.9804688e-01   4.8339844e-01   4.7363281e-01   4.6386719e-01   4.4921875e-01   4.4433594e-01   4.3457031e-01   4.2968750e-01   4.2968750e-01   4.1992188e-01   4.1992188e-01   4.1503906e-01   4.1503906e-01   4.1503906e-01   4.1015625e-01   4.0527344e-01   4.0527344e-01   3.9550781e-01   3.8574219e-01   3.8085938e-01   3.7597656e-01   3.6621094e-01   3.5644531e-01   3.4667969e-01   3.3691406e-01   3.2226562e-01   3.1738281e-01   2.9785156e-01   2.9296875e-01   2.8320312e-01   2.6855469e-01   2.6367188e-01   2.4902344e-01   2.4414062e-01   2.3925781e-01   2.3437500e-01   2.2949219e-01   2.2460938e-01   2.1972656e-01   2.1484375e-01   2.1484375e-01   2.0996094e-01   2.0507812e-01   2.0996094e-01   2.0507812e-01   2.0019531e-01   2.0019531e-01   2.0019531e-01   2.0019531e-01   2.0507812e-01   2.1972656e-01   2.3925781e-01   2.6367188e-01   2.9785156e-01   3.3203125e-01   3.7109375e-01   4.1015625e-01   4.4433594e-01   4.7363281e-01   5.0292969e-01   5.2734375e-01   5.4687500e-01   5.6152344e-01   5.7128906e-01   5.8105469e-01   5.8593750e-01   5.9570312e-01   5.9570312e-01   5.9082031e-01   5.9082031e-01   5.8105469e-01   5.7617188e-01   5.6640625e-01   5.5175781e-01   5.4199219e-01   5.2734375e-01   5.1269531e-01   5.0292969e-01   4.8828125e-01   4.8339844e-01   4.7363281e-01   4.6875000e-01   4.6386719e-01   4.5898438e-01   4.5410156e-01   4.5410156e-01   4.4921875e-01   4.4433594e-01   4.4433594e-01   4.3457031e-01   4.2968750e-01   4.2480469e-01   4.1503906e-01   4.0527344e-01   3.9550781e-01   3.9062500e-01   3.7597656e-01   3.6621094e-01   3.5644531e-01   3.4667969e-01   3.3691406e-01   3.2714844e-01   3.1738281e-01   3.0273438e-01   2.9296875e-01   2.8320312e-01   2.7343750e-01   2.6855469e-01   2.5878906e-01   2.5390625e-01   2.4902344e-01   2.4414062e-01   2.4414062e-01   2.3925781e-01   2.3925781e-01   2.3437500e-01   2.2949219e-01   2.2460938e-01   2.1972656e-01   2.1972656e-01   2.1484375e-01   2.1484375e-01   2.1484375e-01   2.1484375e-01   2.2460938e-01   2.3925781e-01   2.5878906e-01   2.9296875e-01   3.2714844e-01   3.6621094e-01   4.0527344e-01   4.3457031e-01   4.6386719e-01   4.9316406e-01   5.1269531e-01   5.3222656e-01   5.4687500e-01   5.6152344e-01   5.7617188e-01   5.8105469e-01   5.8105469e-01   5.8593750e-01   5.8593750e-01   5.8593750e-01   5.7617188e-01   5.7128906e-01   5.6152344e-01   5.5175781e-01   5.4199219e-01   5.2734375e-01   5.1269531e-01   4.9804688e-01   4.8339844e-01   4.7363281e-01   4.6875000e-01   4.5898438e-01   4.5410156e-01   4.5410156e-01   4.4433594e-01   4.3945312e-01   4.3945312e-01   4.3457031e-01   4.2968750e-01   4.2480469e-01   4.1992188e-01   4.1503906e-01   4.1015625e-01   3.9550781e-01   3.9062500e-01   3.8085938e-01   3.7109375e-01   3.6132812e-01   3.4667969e-01   3.4179688e-01   3.2714844e-01   3.1738281e-01   3.0761719e-01   2.9296875e-01   2.8320312e-01   2.7343750e-01   2.6367188e-01   2.5390625e-01   2.4902344e-01   2.3925781e-01   2.3925781e-01   2.2949219e-01   2.2949219e-01   2.2460938e-01   2.1972656e-01   2.1972656e-01   2.1484375e-01   2.0996094e-01   2.0996094e-01   2.0507812e-01   2.0507812e-01   2.0507812e-01   2.0019531e-01   2.0019531e-01   2.0019531e-01   2.0507812e-01   2.1484375e-01   2.3437500e-01   2.6367188e-01   2.8808594e-01   3.2714844e-01   3.6132812e-01   3.9550781e-01   4.2968750e-01   4.5898438e-01   4.8339844e-01   5.0781250e-01   5.2246094e-01   5.3710938e-01   5.4687500e-01   5.5175781e-01   5.5664062e-01   5.6152344e-01   5.6152344e-01   5.5664062e-01   5.5175781e-01   5.4687500e-01   5.3710938e-01   5.2734375e-01   5.1269531e-01   5.0292969e-01   4.8828125e-01   4.7363281e-01   4.6386719e-01   4.5410156e-01   4.4921875e-01   4.4433594e-01   4.3457031e-01   4.2968750e-01   4.2480469e-01   4.2480469e-01   4.1992188e-01   4.1992188e-01   4.1503906e-01   4.1015625e-01   4.0527344e-01   4.0039062e-01   3.9550781e-01   3.8574219e-01   3.8085938e-01   3.7109375e-01   3.6132812e-01   3.5644531e-01   3.4179688e-01   3.3203125e-01   3.2226562e-01   3.1250000e-01   3.0273438e-01   2.9296875e-01   2.8320312e-01   2.7343750e-01   2.6855469e-01   2.5878906e-01   2.5390625e-01   2.4414062e-01   2.4414062e-01   2.3925781e-01   2.3437500e-01   2.2949219e-01   2.2949219e-01   2.2460938e-01   2.1972656e-01   2.1972656e-01   2.1484375e-01   2.0996094e-01   2.0507812e-01   2.0996094e-01   2.0996094e-01   2.1484375e-01   2.2949219e-01   2.4902344e-01   2.7343750e-01   3.0761719e-01   3.3691406e-01   3.7597656e-01   4.1015625e-01   4.4433594e-01   4.6875000e-01   4.8828125e-01   5.1269531e-01   5.2246094e-01   5.3222656e-01   5.4199219e-01   5.4687500e-01   5.4687500e-01   5.4687500e-01   5.4687500e-01   5.4199219e-01   5.3710938e-01   5.2734375e-01   5.1269531e-01   4.9804688e-01   4.8828125e-01   4.7851562e-01   4.6386719e-01   4.5410156e-01   4.3945312e-01   4.3457031e-01   4.2968750e-01   4.2480469e-01   4.1992188e-01   4.1503906e-01   4.1503906e-01   4.1503906e-01   4.1015625e-01   4.0527344e-01   4.0527344e-01   4.0039062e-01   3.9550781e-01   3.8574219e-01   3.8085938e-01   3.7597656e-01   3.6621094e-01   3.5644531e-01   3.4667969e-01   3.3691406e-01   3.2714844e-01   3.1738281e-01   3.0761719e-01   2.9785156e-01   2.8808594e-01   2.7343750e-01   2.6855469e-01   2.6367188e-01   2.4902344e-01   2.4902344e-01   2.3437500e-01   2.2949219e-01   2.2949219e-01   2.1972656e-01   2.1972656e-01   2.1484375e-01   2.0996094e-01   2.0996094e-01   2.0507812e-01   2.0507812e-01   2.0019531e-01   2.0019531e-01   2.0019531e-01   2.0019531e-01   2.0996094e-01   2.1972656e-01   2.3925781e-01   2.6855469e-01   3.0273438e-01   3.4179688e-01   3.8085938e-01   4.1992188e-01   4.4921875e-01   4.7851562e-01   5.0781250e-01   5.2734375e-01   5.4199219e-01   5.5664062e-01   5.6640625e-01   5.7617188e-01   5.8105469e-01   5.8593750e-01   5.8593750e-01   5.8593750e-01   5.8105469e-01   5.7617188e-01   5.7128906e-01   5.6152344e-01   5.4687500e-01   5.3710938e-01   5.2734375e-01   5.1269531e-01   4.9804688e-01   4.8339844e-01   4.7851562e-01   4.6875000e-01   4.6875000e-01   4.6386719e-01   4.5898438e-01   4.5410156e-01   4.4921875e-01   4.4433594e-01   4.4433594e-01   4.3457031e-01   4.2968750e-01   4.2480469e-01   4.1503906e-01   4.0527344e-01   4.0039062e-01   3.9062500e-01   3.8574219e-01   3.7597656e-01   3.6132812e-01   3.5156250e-01   3.4179688e-01   3.3203125e-01   3.1738281e-01   3.0761719e-01   2.9785156e-01   2.8808594e-01   2.7343750e-01   2.6855469e-01   2.5878906e-01   2.5390625e-01   2.4902344e-01   2.4414062e-01   2.3925781e-01   2.3437500e-01   2.3437500e-01   2.2949219e-01   2.2460938e-01   2.2460938e-01   2.1972656e-01   2.1484375e-01   2.1484375e-01   2.0996094e-01   2.0996094e-01   2.0996094e-01   2.0507812e-01   2.1484375e-01   2.1972656e-01   2.3925781e-01   2.6855469e-01   2.9785156e-01   3.3203125e-01   3.7109375e-01   4.0527344e-01   4.4433594e-01   4.6875000e-01   4.9316406e-01   5.1757812e-01   5.3710938e-01   5.5175781e-01   5.6152344e-01   5.7128906e-01   5.7617188e-01   5.8105469e-01   5.8105469e-01   5.8105469e-01   5.8105469e-01   5.7617188e-01   5.6640625e-01   5.6152344e-01   5.4687500e-01   5.3222656e-01   5.2246094e-01   5.1269531e-01   4.9804688e-01   4.8828125e-01   4.7851562e-01   4.6875000e-01   4.6386719e-01   4.5898438e-01   4.5410156e-01   4.4921875e-01   4.4433594e-01   4.3945312e-01   4.3945312e-01   4.2968750e-01   4.2968750e-01   4.1992188e-01   4.1503906e-01   4.1015625e-01   4.0039062e-01   3.8574219e-01   3.8085938e-01   3.6621094e-01   3.5644531e-01   3.4667969e-01   3.3691406e-01   3.2226562e-01   3.1250000e-01   3.0273438e-01   2.9296875e-01   2.7832031e-01   2.6855469e-01   2.5878906e-01   2.4902344e-01   2.4414062e-01   2.3925781e-01   2.3437500e-01   2.2460938e-01   2.1972656e-01   2.1972656e-01   2.1484375e-01   2.0996094e-01   2.0996094e-01   2.0507812e-01   2.0507812e-01   2.0019531e-01   1.9042969e-01   1.9042969e-01   1.9042969e-01   1.8554688e-01   1.8554688e-01   1.9042969e-01   2.0019531e-01   2.1484375e-01   2.3925781e-01   2.7343750e-01   3.0761719e-01   3.4179688e-01   3.8085938e-01   4.1992188e-01   4.4921875e-01   4.7363281e-01   4.9804688e-01   5.1757812e-01   5.3222656e-01   5.3710938e-01   5.5175781e-01   5.5664062e-01   5.5664062e-01   5.6152344e-01   5.5664062e-01   5.5664062e-01   5.4687500e-01   5.3710938e-01   5.2734375e-01   5.1269531e-01   5.0292969e-01   4.9316406e-01   4.7851562e-01   4.6875000e-01   4.5898438e-01   4.4921875e-01   4.3945312e-01   4.3457031e-01   4.2968750e-01   4.2968750e-01   4.2480469e-01   4.2480469e-01   4.1992188e-01   4.1503906e-01   4.1015625e-01   4.0527344e-01   4.0039062e-01   3.9550781e-01   3.8574219e-01   3.7597656e-01   3.7109375e-01   3.6132812e-01   3.5644531e-01   3.4179688e-01   3.3691406e-01   3.2714844e-01   3.1738281e-01   3.0273438e-01   2.9296875e-01   2.8320312e-01   2.7343750e-01   2.6855469e-01   2.5878906e-01   2.4902344e-01   2.3925781e-01   2.3437500e-01   2.2949219e-01   2.2949219e-01   2.2460938e-01   2.1972656e-01   2.1484375e-01   2.0996094e-01   2.0996094e-01   2.0507812e-01   2.0019531e-01   2.0019531e-01   1.9531250e-01   1.9042969e-01   1.8554688e-01   1.9531250e-01   2.0507812e-01   2.1484375e-01   2.3925781e-01   2.6367188e-01   2.9296875e-01   3.3203125e-01   3.6621094e-01   4.0039062e-01   4.3457031e-01   4.5898438e-01   4.8828125e-01   5.0292969e-01   5.1757812e-01   5.2734375e-01   5.3710938e-01   5.4687500e-01   5.4687500e-01   5.4687500e-01   5.4199219e-01   5.3710938e-01   5.2734375e-01   5.1757812e-01   5.0781250e-01   4.9316406e-01   4.8339844e-01   4.7363281e-01   4.5898438e-01   4.4921875e-01   4.3945312e-01   4.3457031e-01   4.2480469e-01   4.2480469e-01   4.1503906e-01   4.1992188e-01   4.1503906e-01   4.1015625e-01   4.1015625e-01   4.0527344e-01   4.0039062e-01   4.0039062e-01   3.9062500e-01   3.8574219e-01   3.7597656e-01   3.7109375e-01   3.6132812e-01   3.5644531e-01   3.4179688e-01   3.3691406e-01   3.2714844e-01   3.1250000e-01   3.0761719e-01   2.9785156e-01   2.8320312e-01   2.7343750e-01   2.6367188e-01   2.5878906e-01   2.4902344e-01   2.4414062e-01   2.3925781e-01   2.3437500e-01   2.2460938e-01   2.1972656e-01   2.1972656e-01   2.1484375e-01   2.1484375e-01   2.0996094e-01   2.0996094e-01   2.0019531e-01   2.0019531e-01   2.0019531e-01   1.9531250e-01   2.0019531e-01   2.0507812e-01   2.1972656e-01   2.3925781e-01   2.6367188e-01   3.0273438e-01   3.3691406e-01   3.7597656e-01   4.1015625e-01   4.4433594e-01   4.7851562e-01   5.0292969e-01   5.1757812e-01   5.3710938e-01   5.5175781e-01   5.5664062e-01   5.6640625e-01   5.7128906e-01   5.7128906e-01   5.7128906e-01   5.6640625e-01   5.6640625e-01   5.5175781e-01   5.4199219e-01   5.3222656e-01   5.1757812e-01   5.0292969e-01   4.9316406e-01   4.7851562e-01   4.6875000e-01   4.5898438e-01   4.5898438e-01   4.4921875e-01   4.4433594e-01   4.3945312e-01   4.3457031e-01   4.3457031e-01   4.3457031e-01   4.2968750e-01   4.2968750e-01   4.1992188e-01   4.1503906e-01   4.1015625e-01   4.0527344e-01   3.9550781e-01   3.8574219e-01   3.8085938e-01   3.6621094e-01   3.6132812e-01   3.5156250e-01   3.4179688e-01   3.2714844e-01   3.1738281e-01   3.0761719e-01   2.9785156e-01   2.8808594e-01   2.8320312e-01   2.7343750e-01   2.6367188e-01   2.6367188e-01   2.5390625e-01   2.4902344e-01   2.4414062e-01   2.3925781e-01   2.3437500e-01   2.3437500e-01   2.2460938e-01   2.2460938e-01   2.1972656e-01   2.1972656e-01   2.1484375e-01   2.1484375e-01   2.1484375e-01   2.0996094e-01   2.1972656e-01   2.2460938e-01   2.3925781e-01   2.6367188e-01   2.9296875e-01   3.2714844e-01   3.6621094e-01   4.0527344e-01   4.3945312e-01   4.7363281e-01   5.0292969e-01   5.1757812e-01   5.4199219e-01   5.5664062e-01   5.7617188e-01   5.8105469e-01   5.9082031e-01   5.9570312e-01   6.0058594e-01   5.9570312e-01   5.9570312e-01   5.9082031e-01   5.8593750e-01   5.8105469e-01   5.6640625e-01   5.5664062e-01   5.4199219e-01   5.3222656e-01   5.2246094e-01   5.0781250e-01   4.9804688e-01   4.8828125e-01   4.8339844e-01   4.8339844e-01   4.7851562e-01   4.7363281e-01   4.6875000e-01   4.6386719e-01   4.6386719e-01   4.5410156e-01   4.4921875e-01   4.4433594e-01   4.3457031e-01   4.2480469e-01   4.1503906e-01   4.1015625e-01   4.0039062e-01   3.9062500e-01   3.8085938e-01   3.7109375e-01   3.5644531e-01   3.5156250e-01   3.4179688e-01   3.2714844e-01   3.1738281e-01   3.0761719e-01   2.9785156e-01   2.8808594e-01   2.7832031e-01   2.7343750e-01   2.6855469e-01   2.5878906e-01   2.5878906e-01   2.5390625e-01   2.4902344e-01   2.4902344e-01   2.4414062e-01   2.4414062e-01   2.3925781e-01   2.3437500e-01   2.3437500e-01   2.2949219e-01   2.2460938e-01   2.2460938e-01   2.1972656e-01   2.2460938e-01   2.2949219e-01   2.4902344e-01   2.6855469e-01   2.9296875e-01   3.2226562e-01   3.6132812e-01   3.9550781e-01   4.2480469e-01   4.5898438e-01   4.8828125e-01   5.0781250e-01   5.2734375e-01   5.4199219e-01   5.5175781e-01   5.6152344e-01   5.7128906e-01   5.7617188e-01   5.7617188e-01   5.8105469e-01   5.8105469e-01   5.7617188e-01   5.6640625e-01   5.6152344e-01   5.5175781e-01   5.4199219e-01   5.2734375e-01   5.1757812e-01   5.0292969e-01   4.9316406e-01   4.8339844e-01   4.7363281e-01   4.6875000e-01   4.6386719e-01   4.5898438e-01   4.5898438e-01   4.5410156e-01   4.4921875e-01   4.4921875e-01   4.3945312e-01   4.3945312e-01   4.2968750e-01   4.2480469e-01   4.1503906e-01   4.0527344e-01   3.9550781e-01   3.8574219e-01   3.8085938e-01   3.7109375e-01   3.6132812e-01   3.4667969e-01   3.3691406e-01   3.2714844e-01   3.1250000e-01   3.0761719e-01   2.9785156e-01   2.8808594e-01   2.8320312e-01   2.7343750e-01   2.6367188e-01   2.5878906e-01   2.5878906e-01   2.5390625e-01   2.4902344e-01   2.4414062e-01   2.3925781e-01   2.3925781e-01   2.3437500e-01   2.2949219e-01   2.2460938e-01   2.2460938e-01   2.1972656e-01   2.1972656e-01   2.1972656e-01   2.1972656e-01   2.1972656e-01   2.2949219e-01   2.4414062e-01   2.6367188e-01   2.9296875e-01   3.2226562e-01   3.5644531e-01   3.9062500e-01   4.1992188e-01   4.4921875e-01   4.7363281e-01   4.9316406e-01   5.1269531e-01   5.2246094e-01   5.3222656e-01   5.3710938e-01   5.4687500e-01   5.4687500e-01   5.4687500e-01   5.4687500e-01   5.4199219e-01   5.3222656e-01   5.2734375e-01   5.1269531e-01   5.0292969e-01   4.9316406e-01   4.7851562e-01   4.7363281e-01   4.5898438e-01   4.4921875e-01   4.4433594e-01   4.3457031e-01   4.3457031e-01   4.2968750e-01   4.2480469e-01   4.2480469e-01   4.1992188e-01   4.1992188e-01   4.1503906e-01   4.1015625e-01   4.0527344e-01   3.9550781e-01   3.9550781e-01   3.8574219e-01   3.7597656e-01   3.6621094e-01   3.6132812e-01   3.4667969e-01   3.4179688e-01   3.2714844e-01   3.2226562e-01   3.1250000e-01   2.9785156e-01   2.9296875e-01   2.8320312e-01   2.7343750e-01   2.6367188e-01   2.5878906e-01   2.5390625e-01   2.4902344e-01   2.4902344e-01   2.3925781e-01   2.3925781e-01   2.3437500e-01   2.2460938e-01   2.2460938e-01   2.1972656e-01   2.1484375e-01   2.1484375e-01   2.0996094e-01   2.0996094e-01   2.0507812e-01   2.0996094e-01   2.1484375e-01   2.2949219e-01   2.5390625e-01   2.7832031e-01   3.0761719e-01   3.4667969e-01   3.7597656e-01   4.1015625e-01   4.3457031e-01   4.5410156e-01   4.7851562e-01   4.9316406e-01   5.0781250e-01   5.1757812e-01   5.2246094e-01   5.2734375e-01   5.2734375e-01   5.2734375e-01   5.2246094e-01   5.2246094e-01   5.1269531e-01   5.0292969e-01   4.9316406e-01   4.7851562e-01   4.6875000e-01   4.5410156e-01   4.4433594e-01   4.3457031e-01   4.2968750e-01   4.2480469e-01   4.1503906e-01   4.1503906e-01   4.1015625e-01   4.1015625e-01   4.0527344e-01   4.0527344e-01   4.0527344e-01   4.0039062e-01   3.9550781e-01   3.9062500e-01   3.8574219e-01   3.8085938e-01   3.7597656e-01   3.6621094e-01   3.5644531e-01   3.5156250e-01   3.4179688e-01   3.3203125e-01   3.1738281e-01   3.0761719e-01   3.0273438e-01   2.9296875e-01   2.8320312e-01   2.7832031e-01   2.6855469e-01   2.5878906e-01   2.4902344e-01   2.4414062e-01   2.4414062e-01   2.3925781e-01   2.3437500e-01   2.2949219e-01   2.2460938e-01   2.1972656e-01   2.2460938e-01   2.1972656e-01   2.1484375e-01   2.1484375e-01   2.0996094e-01   2.1484375e-01   2.0996094e-01   2.1972656e-01   2.2460938e-01   2.3925781e-01   2.6855469e-01   2.9785156e-01   3.2714844e-01   3.6132812e-01   3.9550781e-01   4.3457031e-01   4.6386719e-01   4.8828125e-01   5.0781250e-01   5.2734375e-01   5.4199219e-01   5.5664062e-01   5.6152344e-01   5.7128906e-01   5.7617188e-01   5.8105469e-01   5.7617188e-01   5.7617188e-01   5.7617188e-01   5.7128906e-01   5.6152344e-01   5.5664062e-01   5.3710938e-01   5.3222656e-01   5.1757812e-01   5.0292969e-01   4.9316406e-01   4.8339844e-01   4.8339844e-01   4.7363281e-01   4.6875000e-01   4.6875000e-01   4.5898438e-01   4.5898438e-01   4.5410156e-01   4.4921875e-01   4.4433594e-01   4.3945312e-01   4.3457031e-01   4.2480469e-01   