   1.9189453e+00   1.8847656e+00   1.8310547e+00   1.7773438e+00   1.7285156e+00   1.6943359e+00   1.6650391e+00   1.6357422e+00   1.5966797e+00   1.5673828e+00   1.5527344e+00   1.5429688e+00   1.5332031e+00   1.5283203e+00   1.5234375e+00   1.5185547e+00   1.5039062e+00   1.4990234e+00   1.4892578e+00   1.4843750e+00   1.4794922e+00   1.4794922e+00   1.4697266e+00   1.4648438e+00   1.4550781e+00   1.4404297e+00   1.4306641e+00   1.4208984e+00   1.3964844e+00   1.3720703e+00   1.3623047e+00   1.3476562e+00   1.3330078e+00   1.3232422e+00   1.3085938e+00   1.2988281e+00   1.2841797e+00   1.2597656e+00   1.2402344e+00   1.2207031e+00   1.2060547e+00   1.1914062e+00   1.1767578e+00   1.1669922e+00   1.1474609e+00   1.1376953e+00   1.1279297e+00   1.1132812e+00   1.1035156e+00   1.1083984e+00   1.1181641e+00   1.1474609e+00   1.2060547e+00   1.2695312e+00   1.3574219e+00   1.4550781e+00   1.5478516e+00   1.6357422e+00   1.7187500e+00   1.7919922e+00   1.8554688e+00   1.9042969e+00   1.9433594e+00   1.9726562e+00   1.9921875e+00   2.0019531e+00   2.0117188e+00   2.0263672e+00   2.0214844e+00   2.0068359e+00   1.9921875e+00   1.9677734e+00   1.9482422e+00   1.9287109e+00   1.9042969e+00   1.8701172e+00   1.8310547e+00   1.7919922e+00   1.7529297e+00   1.7187500e+00   1.6894531e+00   1.6455078e+00   1.6064453e+00   1.5966797e+00   1.5771484e+00   1.5576172e+00   1.5478516e+00   1.5332031e+00   1.5234375e+00   1.5039062e+00   1.4843750e+00   1.4746094e+00   1.4648438e+00   1.4501953e+00   1.4355469e+00   1.4257812e+00   1.4160156e+00   1.4013672e+00   1.3916016e+00   1.3769531e+00   1.3671875e+00   1.3476562e+00   1.3330078e+00   1.3183594e+00   1.3037109e+00   1.2939453e+00   1.2792969e+00   1.2597656e+00   1.2500000e+00   1.2353516e+00   1.2207031e+00   1.2060547e+00   1.1962891e+00   1.1865234e+00   1.1816406e+00   1.1718750e+00   1.1621094e+00   1.1572266e+00   1.1474609e+00   1.1425781e+00   1.1328125e+00   1.1279297e+00   1.1181641e+00   1.1132812e+00   1.1083984e+00   1.1132812e+00   1.1230469e+00   1.1621094e+00   1.2255859e+00   1.3134766e+00   1.4062500e+00   1.5087891e+00   1.6113281e+00   1.7187500e+00   1.8066406e+00   1.8847656e+00   1.9531250e+00   2.0214844e+00   2.0703125e+00   2.1142578e+00   2.1484375e+00   2.1679688e+00   2.1728516e+00   2.1679688e+00   2.1679688e+00   2.1533203e+00   2.1533203e+00   2.1435547e+00   2.1289062e+00   2.1044922e+00   2.0800781e+00   2.0507812e+00   2.0019531e+00   1.9677734e+00   1.9140625e+00   1.8750000e+00   1.8408203e+00   1.7919922e+00   1.7480469e+00   1.7138672e+00   1.6748047e+00   1.6455078e+00   1.6210938e+00   1.5966797e+00   1.5820312e+00   1.5625000e+00   1.5429688e+00   1.5332031e+00   1.5185547e+00   1.5039062e+00   1.4941406e+00   1.4843750e+00   1.4697266e+00   1.4599609e+00   1.4404297e+00   1.4257812e+00   1.4111328e+00   1.3916016e+00   1.3769531e+00   1.3623047e+00   1.3378906e+00   1.3281250e+00   1.3085938e+00   1.2939453e+00   1.2744141e+00   1.2597656e+00   1.2402344e+00   1.2255859e+00   1.2109375e+00   1.2011719e+00   1.1914062e+00   1.1816406e+00   1.1621094e+00   1.1572266e+00   1.1474609e+00   1.1425781e+00   1.1376953e+00   1.1328125e+00   1.1279297e+00   1.1181641e+00   1.1132812e+00   1.1083984e+00   1.1083984e+00   1.1035156e+00   1.0986328e+00   1.1132812e+00   1.1474609e+00   1.2011719e+00   1.2792969e+00   1.3720703e+00   1.4697266e+00   1.5771484e+00   1.6748047e+00   1.7675781e+00   1.8505859e+00   1.9189453e+00   1.9775391e+00   2.0263672e+00   2.0703125e+00   2.0947266e+00   2.1142578e+00   2.1289062e+00   2.1289062e+00   2.1289062e+00   2.1093750e+00   2.0849609e+00   2.0605469e+00   2.0312500e+00   1.9970703e+00   1.9628906e+00   1.9238281e+00   1.8798828e+00   1.8408203e+00   1.7968750e+00   1.7480469e+00   1.7041016e+00   1.6699219e+00   1.6357422e+00   1.6015625e+00   1.5722656e+00   1.5478516e+00   1.5283203e+00   1.5087891e+00   1.4941406e+00   1.4843750e+00   1.4697266e+00   1.4599609e+00   1.4501953e+00   1.4404297e+00   1.4355469e+00   1.4257812e+00   1.4111328e+00   1.4013672e+00   1.3867188e+00   1.3720703e+00   1.3574219e+00   1.3476562e+00   1.3281250e+00   1.3183594e+00   1.2988281e+00   1.2841797e+00   1.2695312e+00   1.2548828e+00   1.2402344e+00   1.2255859e+00   1.2060547e+00   1.1962891e+00   1.1865234e+00   1.1718750e+00   1.1621094e+00   1.1523438e+00   1.1474609e+00   1.1376953e+00   1.1328125e+00   1.1279297e+00   1.1181641e+00   1.1132812e+00   1.1035156e+00   1.0986328e+00   1.0839844e+00   1.0791016e+00   1.0742188e+00   1.0693359e+00   1.0644531e+00   1.0644531e+00   1.0839844e+00   1.1328125e+00   1.1914062e+00   1.2792969e+00   1.3769531e+00   1.4794922e+00   1.5625000e+00   1.6503906e+00   1.7333984e+00   1.8017578e+00   1.8554688e+00   1.9042969e+00   1.9433594e+00   1.9677734e+00   1.9824219e+00   1.9873047e+00   1.9873047e+00   1.9824219e+00   1.9628906e+00   1.9482422e+00   1.9189453e+00   1.8896484e+00   1.8505859e+00   1.8164062e+00   1.7724609e+00   1.7285156e+00   1.6894531e+00   1.6406250e+00   1.6015625e+00   1.5722656e+00   1.5429688e+00   1.5185547e+00   1.4990234e+00   1.4843750e+00   1.4697266e+00   1.4599609e+00   1.4550781e+00   1.4453125e+00   1.4404297e+00   1.4355469e+00   1.4306641e+00   1.4208984e+00   1.4111328e+00   1.4062500e+00   1.3916016e+00   1.3818359e+00   1.3769531e+00   1.3671875e+00   1.3574219e+00   1.3476562e+00   1.3378906e+00   1.3281250e+00   1.3183594e+00   1.3037109e+00   1.2988281e+00   1.2841797e+00   1.2792969e+00   1.2646484e+00   1.2597656e+00   1.2500000e+00   1.2500000e+00   1.2402344e+00   1.2353516e+00   1.2304688e+00   1.2207031e+00   1.2207031e+00   1.2158203e+00   1.2109375e+00   1.2011719e+00   1.1962891e+00   1.1962891e+00   1.1914062e+00   1.1865234e+00   1.1962891e+00   1.2255859e+00   1.2792969e+00   1.3623047e+00   1.4501953e+00   1.5478516e+00   1.6455078e+00   1.7333984e+00   1.8164062e+00   1.8847656e+00   1.9384766e+00   1.9873047e+00   2.0263672e+00   2.0556641e+00   2.0751953e+00   2.0898438e+00   2.0898438e+00   2.0849609e+00   2.0751953e+00   2.0605469e+00   2.0410156e+00   2.0166016e+00   1.9824219e+00   1.9433594e+00   1.8994141e+00   1.8554688e+00   1.8115234e+00   1.7724609e+00   1.7333984e+00   1.7041016e+00   1.6748047e+00   1.6503906e+00   1.6308594e+00   1.6113281e+00   1.6015625e+00   1.5917969e+00   1.5771484e+00   1.5722656e+00   1.5625000e+00   1.5576172e+00   1.5576172e+00   1.5478516e+00   1.5478516e+00   1.5429688e+00   1.5380859e+00   1.5332031e+00   1.5234375e+00   1.5185547e+00   1.5136719e+00   1.4990234e+00   1.4892578e+00   1.4746094e+00   1.4648438e+00   1.4550781e+00   1.4404297e+00   1.4208984e+00   1.4062500e+00   1.3916016e+00   1.3769531e+00   1.3574219e+00   1.3476562e+00   1.3281250e+00   1.3085938e+00   1.2939453e+00   1.2744141e+00   1.2597656e+00   1.2402344e+00   1.2207031e+00   1.2011719e+00   1.1865234e+00   1.1718750e+00   1.1767578e+00   1.2158203e+00   1.2792969e+00   1.3720703e+00   1.4697266e+00   1.5722656e+00   1.6699219e+00   1.7529297e+00   1.8408203e+00   1.9140625e+00   1.9726562e+00   2.0214844e+00   2.0605469e+00   2.0898438e+00   2.1142578e+00   2.1240234e+00   2.1289062e+00   2.1289062e+00   2.1191406e+00   2.1044922e+00   2.0947266e+00   2.0703125e+00   2.0458984e+00   2.0117188e+00   1.9775391e+00   1.9384766e+00   1.8896484e+00   1.8457031e+00   1.8066406e+00   1.7626953e+00   1.7187500e+00   1.6796875e+00   1.6455078e+00   1.6210938e+00   1.5869141e+00   1.5673828e+00   1.5478516e+00   1.5332031e+00   1.5234375e+00   1.5136719e+00   1.5039062e+00   1.4892578e+00   1.4843750e+00   1.4746094e+00   1.4648438e+00   1.4648438e+00   1.4648438e+00   1.4599609e+00   1.4550781e+00   1.4550781e+00   1.4355469e+00   1.4257812e+00   1.4160156e+00   1.4013672e+00   1.3867188e+00   1.3671875e+00   1.3476562e+00   1.3330078e+00   1.3183594e+00   1.3037109e+00   1.2792969e+00   1.2500000e+00   1.2304688e+00   1.2060547e+00   1.1865234e+00   1.1669922e+00   1.1621094e+00   1.1474609e+00   1.1376953e+00   1.1279297e+00   1.1230469e+00   1.1279297e+00   1.1474609e+00   1.1962891e+00   1.2695312e+00   1.3476562e+00   1.4501953e+00   1.5478516e+00   1.6455078e+00   1.7285156e+00   1.8115234e+00   1.8847656e+00   1.9482422e+00   1.9921875e+00   2.0361328e+00   2.0703125e+00   2.0898438e+00   2.1093750e+00   2.1142578e+00   2.1142578e+00   2.1142578e+00   2.0996094e+00   2.0898438e+00   2.0654297e+00   2.0361328e+00   2.0068359e+00   1.9775391e+00   1.9384766e+00   1.8945312e+00   1.8505859e+00   1.8066406e+00   1.7626953e+00   1.7187500e+00   1.6796875e+00   1.6455078e+00   1.6162109e+00   1.5917969e+00   1.5722656e+00   1.5527344e+00   1.5380859e+00   1.5283203e+00   1.5136719e+00   1.4990234e+00   1.4941406e+00   1.4843750e+00   1.4746094e+00   1.4648438e+00   1.4501953e+00   1.4404297e+00   1.4208984e+00   1.4062500e+00   1.3916016e+00   1.3818359e+00   1.3623047e+00   1.3476562e+00   1.3232422e+00   1.3037109e+00   1.2890625e+00   1.2646484e+00   1.2451172e+00   1.2353516e+00   1.2109375e+00   1.1962891e+00   1.1816406e+00   1.1621094e+00   1.1572266e+00   1.1425781e+00   1.1328125e+00   1.1279297e+00   1.1132812e+00   1.1035156e+00   1.0937500e+00   1.0839844e+00   1.0791016e+00   1.0693359e+00   1.0546875e+00   1.0449219e+00   1.0351562e+00   1.0351562e+00   1.0400391e+00   1.0742188e+00   1.1230469e+00   1.2011719e+00   1.2988281e+00   1.4013672e+00   1.5087891e+00   1.6015625e+00   1.6894531e+00   1.7675781e+00   1.8359375e+00   1.8896484e+00   1.9384766e+00   1.9775391e+00   2.0019531e+00   2.0214844e+00   2.0312500e+00   2.0361328e+00   2.0361328e+00   2.0263672e+00   2.0166016e+00   1.9970703e+00   1.9677734e+00   1.9433594e+00   1.9140625e+00   1.8750000e+00   1.8359375e+00   1.7919922e+00   1.7578125e+00   1.7187500e+00   1.6845703e+00   1.6503906e+00   1.6259766e+00   1.5966797e+00   1.5722656e+00   1.5527344e+00   1.5429688e+00   1.5283203e+00   1.5185547e+00   1.5087891e+00   1.5039062e+00   1.4990234e+00   1.4892578e+00   1.4843750e+00   1.4746094e+00   1.4697266e+00   1.4648438e+00   1.4501953e+00   1.4404297e+00   1.4306641e+00   1.4160156e+00   1.4013672e+00   1.3916016e+00   1.3818359e+00   1.3671875e+00   1.3525391e+00   1.3427734e+00   1.3330078e+00   1.3134766e+00   1.2988281e+00   1.2792969e+00   1.2695312e+00   1.2597656e+00   1.2500000e+00   1.2353516e+00   1.2304688e+00   1.2207031e+00   1.2109375e+00   1.2060547e+00   1.2060547e+00   1.2011719e+00   1.1962891e+00   1.1962891e+00   1.1962891e+00   1.2060547e+00   1.2353516e+00   1.2841797e+00   1.3525391e+00   1.4355469e+00   1.5185547e+00   1.6162109e+00   1.6992188e+00   1.7822266e+00   1.8457031e+00   1.9091797e+00   1.9628906e+00   2.0019531e+00   2.0263672e+00   2.0410156e+00   2.0507812e+00   2.0507812e+00   2.0458984e+00   2.0312500e+00   2.0117188e+00   1.9873047e+00   1.9580078e+00   1.9287109e+00   1.8896484e+00   1.8457031e+00   1.8017578e+00   1.7578125e+00   1.7187500e+00   1.6796875e+00   1.6455078e+00   1.6210938e+00   1.5966797e+00   1.5771484e+00   1.5625000e+00   1.5478516e+00   1.5429688e+00   1.5332031e+00   1.5332031e+00   1.5234375e+00   1.5185547e+00   1.5136719e+00   1.5039062e+00   1.4990234e+00   1.4892578e+00   1.4794922e+00   1.4697266e+00   1.4599609e+00   1.4501953e+00   1.4355469e+00   1.4208984e+00   1.4062500e+00   1.3916016e+00   1.3818359e+00   1.3623047e+00   1.3525391e+00   1.3378906e+00   1.3232422e+00   1.3085938e+00   1.2939453e+00   1.2792969e+00   1.2646484e+00   1.2548828e+00   1.2451172e+00   1.2304688e+00   1.2255859e+00   1.2158203e+00   1.2060547e+00   1.2011719e+00   1.1914062e+00   1.1865234e+00   1.2060547e+00   1.2451172e+00   1.3085938e+00   1.3818359e+00   1.4697266e+00   1.5625000e+00   1.6503906e+00   1.7236328e+00   1.8017578e+00   1.8750000e+00   1.9335938e+00   1.9775391e+00   2.0166016e+00   2.0458984e+00   2.0654297e+00   2.0751953e+00   2.0751953e+00   2.0800781e+00   2.0703125e+00   2.0605469e+00   2.0410156e+00   2.0214844e+00   2.0019531e+00   1.9726562e+00   1.9384766e+00   1.9042969e+00   1.8603516e+00   1.8212891e+00   1.7822266e+00   1.7431641e+00   1.7089844e+00   1.6748047e+00   1.6503906e+00   1.6259766e+00   1.6064453e+00   1.5869141e+00   1.5673828e+00   1.5527344e+00   1.5380859e+00   1.5234375e+00   1.5136719e+00   1.5039062e+00   1.4941406e+00   1.4843750e+00   1.4697266e+00   1.4599609e+00   1.4501953e+00   1.4404297e+00   1.4257812e+00   1.4111328e+00   1.3964844e+00   1.3818359e+00   1.3623047e+00   1.3476562e+00   1.3330078e+00   1.3183594e+00   1.2988281e+00   1.2841797e+00   1.2695312e+00   1.2548828e+00   1.2451172e+00   1.2353516e+00   1.2255859e+00   1.2109375e+00   1.2011719e+00   1.1914062e+00   1.1767578e+00   1.1669922e+00   1.1572266e+00   1.1523438e+00   1.1572266e+00   1.1865234e+00   1.2402344e+00   1.3183594e+00   1.4062500e+00   1.4941406e+00   1.5869141e+00   1.6796875e+00   1.7626953e+00   1.8359375e+00   1.8994141e+00   1.9580078e+00   2.0068359e+00   2.0361328e+00   2.0703125e+00   2.0898438e+00   2.0996094e+00   2.1044922e+00   2.0996094e+00   2.0898438e+00   2.0751953e+00   2.0605469e+00   2.0410156e+00   2.0117188e+00   1.9824219e+00   1.9384766e+00   1.9042969e+00   1.8603516e+00   1.8115234e+00   1.7675781e+00   1.7187500e+00   1.6748047e+00   1.6357422e+00   1.6015625e+00   1.5722656e+00   1.5478516e+00   1.5234375e+00   1.5039062e+00   1.4892578e+00   1.4794922e+00   1.4697266e+00   1.4599609e+00   1.4501953e+00   1.4404297e+00   1.4306641e+00   1.4208984e+00   1.4111328e+00   1.4013672e+00   1.3916016e+00   1.3769531e+00   1.3623047e+00   1.3476562e+00   1.3378906e+00   1.3183594e+00   1.2988281e+00   1.2841797e+00   1.2646484e+00   1.2500000e+00   1.2255859e+00   1.2060547e+00   1.1914062e+00   1.1718750e+00   1.1621094e+00   1.1474609e+00   1.1376953e+00   1.1279297e+00   1.1230469e+00   1.1083984e+00   1.0986328e+00   1.0888672e+00   1.0791016e+00   1.0693359e+00   1.0595703e+00   1.0546875e+00   1.0498047e+00   1.0498047e+00   1.0693359e+00   1.1035156e+00   1.1669922e+00   1.2548828e+00   1.3574219e+00   1.4599609e+00   1.5673828e+00   1.6650391e+00   1.7480469e+00   1.8359375e+00   1.8945312e+00   1.9482422e+00   1.9970703e+00   2.0312500e+00   2.0605469e+00   2.0849609e+00   2.0947266e+00   2.1044922e+00   2.0996094e+00   2.0947266e+00   2.0800781e+00   2.0605469e+00   2.0361328e+00   2.0117188e+00   1.9726562e+00   1.9335938e+00   1.8847656e+00   1.8408203e+00   1.7968750e+00   1.7529297e+00   1.7089844e+00   1.6748047e+00   1.6406250e+00   1.6064453e+00   1.5771484e+00   1.5576172e+00   1.5332031e+00   1.5185547e+00   1.5039062e+00   1.4941406e+00   1.4843750e+00   1.4794922e+00   1.4697266e+00   1.4599609e+00   1.4501953e+00   1.4453125e+00   1.4355469e+00   1.4257812e+00   1.4111328e+00   1.3964844e+00   1.3818359e+00   1.3623047e+00   1.3427734e+00   1.3183594e+00   1.2988281e+00   1.2695312e+00   1.2402344e+00   1.2109375e+00   1.1767578e+00   1.1474609e+00   1.1181641e+00   1.0937500e+00   1.0839844e+00   1.0742188e+00   1.0742188e+00   1.0791016e+00   1.0888672e+00   1.0986328e+00   1.1083984e+00   1.1132812e+00   1.1230469e+00   1.1328125e+00   1.1376953e+00   1.1474609e+00   1.1523438e+00   1.1523438e+00   1.1621094e+00   1.1669922e+00   1.1816406e+00   1.2207031e+00   1.2695312e+00   1.3427734e+00   1.4160156e+00   1.4990234e+00   1.5820312e+00   1.6650391e+00   1.7236328e+00   1.7822266e+00   1.8359375e+00   1.8750000e+00   1.8994141e+00   1.9189453e+00   1.9287109e+00   1.9335938e+00   1.9287109e+00   1.9189453e+00   1.9042969e+00   1.8798828e+00   1.8603516e+00   1.8212891e+00   1.7919922e+00   1.7626953e+00   1.7285156e+00   1.6943359e+00   1.6601562e+00   1.6259766e+00   1.5917969e+00   1.5673828e+00   1.5429688e+00   1.5087891e+00   1.4843750e+00   1.4648438e+00   1.4501953e+00   1.4501953e+00   1.4501953e+00   1.4550781e+00   1.4550781e+00   1.4550781e+00   1.4501953e+00   1.4355469e+00   1.4257812e+00   1.4111328e+00   1.4013672e+00   1.3916016e+00   1.3769531e+00   1.3671875e+00   1.3574219e+00   1.3427734e+00   1.3281250e+00   1.3183594e+00   1.3134766e+00   1.2988281e+00   1.2890625e+00   1.2792969e+00   1.2744141e+00   1.2597656e+00   1.2500000e+00   1.2402344e+00   1.2255859e+00   1.2109375e+00   1.2011719e+00   1.1914062e+00   1.1865234e+00   1.1767578e+00   1.1669922e+00   1.1523438e+00   1.1425781e+00   1.1425781e+00   1.1523438e+00   1.1865234e+00   1.2402344e+00   1.3183594e+00   1.4160156e+00   1.5136719e+00   1.6064453e+00   1.7041016e+00   1.7919922e+00   1.8701172e+00   1.9335938e+00   1.9921875e+00   2.0361328e+00   2.0703125e+00   2.0947266e+00   2.1044922e+00   2.1142578e+00   2.1093750e+00   2.0996094e+00   2.0898438e+00   2.0703125e+00   2.0458984e+00   2.0214844e+00   1.9873047e+00   1.9531250e+00   1.9091797e+00   1.8701172e+00   1.8212891e+00   1.7773438e+00   1.7431641e+00   1.7041016e+00   1.6699219e+00   1.6503906e+00   1.6210938e+00   1.6015625e+00   1.5869141e+00   1.5722656e+00   1.5625000e+00   1.5527344e+00   1.5478516e+00   1.5380859e+00   1.5380859e+00   1.5283203e+00   1.5234375e+00   1.5136719e+00   1.5087891e+00   1.4990234e+00   1.4892578e+00   1.4697266e+00   1.4453125e+00   1.4257812e+00   1.4062500e+00   1.3916016e+00   1.3769531e+00   1.3574219e+00   1.3525391e+00   1.3378906e+00   1.3281250e+00   1.3183594e+00   1.3037109e+00   1.2890625e+00   1.2792969e+00   1.2597656e+00   1.2500000e+00   1.2353516e+00   1.2255859e+00   1.2158203e+00   1.1962891e+00   1.1914062e+00   1.1816406e+00   1.1767578e+00   1.1914062e+00   1.2304688e+00   1.2939453e+00   1.3769531e+00   1.4697266e+00   1.5673828e+00   1.6650391e+00   1.7529297e+00   1.8310547e+00   1.8994141e+00   1.9580078e+00   2.0019531e+00   2.0361328e+00   2.0654297e+00   2.0849609e+00   2.0947266e+00   2.0996094e+00   2.0996094e+00   2.0996094e+00   2.0849609e+00   2.0751953e+00   2.0556641e+00   2.0312500e+00   2.0068359e+00   1.9775391e+00   1.9433594e+00   1.8994141e+00   1.8554688e+00   1.8115234e+00   1.7724609e+00   1.7236328e+00   1.6845703e+00   1.6455078e+00   1.6113281e+00   1.5820312e+00   1.5576172e+00   1.5332031e+00   1.5136719e+00   1.4990234e+00   1.4843750e+00   1.4746094e+00   1.4599609e+00   1.4453125e+00   1.4355469e+00   1.4257812e+00   1.4160156e+00   1.4013672e+00   1.4013672e+00   1.3964844e+00   1.3867188e+00   1.3671875e+00   1.3476562e+00   1.3281250e+00   1.3183594e+00   1.3183594e+00   1.3085938e+00   1.2939453e+00   1.2890625e+00   1.2792969e+00   1.2646484e+00   1.2548828e+00   1.2451172e+00   1.2353516e+00   1.2304688e+00   1.2255859e+00   1.2060547e+00   1.1865234e+00   1.1816406e+00   1.1669922e+00   1.1572266e+00   1.1523438e+00   1.1474609e+00   1.1474609e+00   1.1669922e+00   1.2109375e+00   1.2695312e+00   1.3525391e+00   1.4550781e+00   1.5527344e+00   1.6455078e+00   1.7285156e+00   1.8066406e+00   1.8847656e+00   1.9482422e+00   1.9921875e+00   2.0361328e+00   2.0654297e+00   2.0849609e+00   2.1044922e+00   2.1093750e+00   2.1142578e+00   2.1044922e+00   2.0947266e+00   2.0800781e+00   2.0605469e+00   2.0312500e+00   2.0019531e+00   1.9726562e+00   1.9335938e+00   1.8896484e+00   1.8457031e+00   1.8017578e+00   1.7626953e+00   1.7187500e+00   1.6845703e+00   1.6455078e+00   1.6113281e+00   1.5820312e+00   1.5527344e+00   1.5332031e+00   1.5136719e+00   1.4990234e+00   1.4843750e+00   1.4697266e+00   1.4648438e+00   1.4501953e+00   1.4404297e+00   1.4306641e+00   1.4257812e+00   1.4160156e+00   1.4062500e+00   1.3964844e+00   1.3916016e+00   1.3818359e+00   1.3671875e+00   1.3525391e+00   1.3427734e+00   1.3330078e+00   1.3232422e+00   1.3085938e+00   1.2988281e+00   1.2841797e+00   1.2744141e+00   1.2597656e+00   1.2500000e+00   1.2402344e+00   1.2304688e+00   1.2255859e+00   1.2158203e+00   1.2060547e+00   1.1962891e+00   1.1914062e+00   1.1767578e+00   1.1718750e+00   1.1669922e+00   1.1621094e+00   1.1474609e+00   1.1425781e+00   1.1425781e+00   1.1474609e+00   1.1669922e+00   1.2207031e+00   1.2841797e+00   1.3769531e+00   1.4746094e+00   1.5722656e+00   1.6552734e+00   1.7480469e+00   1.8212891e+00   1.8896484e+00   1.9433594e+00   1.9970703e+00   2.0263672e+00   2.0556641e+00   2.0703125e+00   2.0849609e+00   2.0898438e+00   2.0898438e+00   2.0800781e+00   2.0654297e+00   2.0507812e+00   2.0263672e+00   1.9970703e+00   1.9677734e+00   1.9287109e+00   1.8847656e+00   1.8408203e+00   1.7968750e+00   1.7529297e+00   1.7089844e+00   1.6699219e+00   1.6357422e+00   1.6113281e+00   1.5820312e+00   1.5625000e+00   1.5478516e+00   1.5380859e+00   1.5234375e+00   1.5136719e+00   1.5039062e+00   1.4941406e+00   1.4892578e+00   1.4794922e+00   1.4697266e+00   1.4599609e+00   1.4501953e+00   1.4355469e+00   1.4257812e+00   1.4111328e+00   1.3964844e+00   1.3818359e+00   1.3671875e+00   1.3476562e+00   1.3330078e+00   1.3134766e+00   1.2939453e+00   1.2792969e+00   1.2646484e+00   1.2500000e+00   1.2353516e+00   1.2207031e+00   1.2109375e+00   1.1962891e+00   1.1865234e+00   1.1718750e+00   1.1621094e+00   1.1523438e+00   1.1474609e+00   1.1376953e+00   1.1279297e+00   1.1230469e+00   1.1132812e+00   1.0986328e+00   1.0839844e+00   1.0791016e+00   1.0742188e+00   1.0791016e+00   1.0986328e+00   1.1425781e+00   1.2158203e+00   1.3037109e+00   1.4013672e+00   1.5039062e+00   1.5869141e+00   1.6748047e+00   1.7529297e+00   1.8164062e+00   1.8701172e+00   1.9189453e+00   1.9580078e+00   1.9824219e+00   1.9970703e+00   2.0068359e+00   2.0117188e+00   2.0019531e+00   1.9921875e+00   1.9726562e+00   1.9482422e+00   1.9189453e+00   1.8896484e+00   1.8505859e+00   1.8066406e+00   1.7626953e+00   1.7236328e+00   1.6943359e+00   1.6503906e+00   1.6162109e+00   1.5869141e+00   1.5527344e+00   1.5087891e+00   1.4746094e+00   1.4501953e+00   1.4257812e+00   1.4111328e+00   1.3964844e+00   1.3818359e+00   1.3818359e+00   1.3867188e+00   1.3916016e+00   1.3916016e+00   1.3916016e+00   1.3916016e+00   1.3769531e+00   1.3574219e+00   1.3476562e+00   1.3378906e+00   1.3232422e+00   1.3085938e+00   1.2988281e+00   1.2841797e+00   1.2695312e+00   1.2597656e+00   1.2548828e+00   1.2500000e+00   1.2402344e+00   1.2304688e+00   1.2207031e+00   1.2109375e+00   1.2060547e+00   1.1816406e+00   1.1621094e+00   1.1425781e+00   1.1279297e+00   1.1181641e+00   1.1230469e+00   1.1181641e+00   1.1181641e+00   1.1181641e+00   1.1035156e+00   1.0839844e+00   1.0742188e+00   1.0693359e+00   1.0742188e+00   1.1035156e+00   1.1572266e+00   1.2207031e+00   1.3085938e+00   1.4111328e+00   1.5039062e+00   1.5820312e+00   1.6601562e+00   1.7333984e+00   1.7919922e+00   1.8457031e+00   1.8847656e+00   1.9140625e+00   1.9384766e+00   1.9482422e+00   1.9531250e+00   1.9482422e+00   1.9384766e+00   1.9189453e+00   1.8945312e+00   1.8652344e+00   1.8310547e+00   1.7871094e+00   1.7431641e+00   1.6992188e+00   1.6503906e+00   1.6064453e+00   1.5771484e+00   1.5527344e+00   1.5332031e+00   1.5136719e+00   1.5039062e+00   1.4990234e+00   1.4990234e+00   1.5039062e+00   1.5039062e+00   1.5087891e+00   1.5087891e+00   1.5136719e+00   1.5136719e+00   1.5136719e+00   1.5136719e+00   1.5136719e+00   1.5087891e+00   1.4990234e+00   1.4892578e+00   1.4794922e+00   1.4648438e+00   1.4501953e+00   1.4355469e+00   1.4208984e+00   1.4062500e+00   1.3916016e+00   1.3769531e+00   1.3623047e+00   1.3476562e+00   1.3281250e+00   1.3134766e+00   1.3037109e+00   1.2841797e+00   1.2695312e+00   1.2597656e+00   1.2500000e+00   1.2402344e+00   1.2304688e+00   1.2207031e+00   1.2158203e+00   1.2158203e+00   1.2255859e+00   1.2548828e+00   1.3085938e+00   1.3818359e+00   1.4746094e+00   1.5625000e+00   1.6455078e+00   1.7285156e+00   1.8017578e+00   1.8701172e+00   1.9189453e+00   1.9677734e+00   2.0019531e+00   2.0312500e+00   2.0458984e+00   2.0507812e+00   2.0507812e+00   2.0458984e+00   2.0312500e+00   2.0117188e+00   1.9921875e+00   1.9628906e+00   1.9287109e+00   1.8945312e+00   1.8505859e+00   1.8066406e+00   1.7578125e+00   1.7138672e+00   1.6748047e+00   1.6357422e+00   1.6015625e+00   1.5722656e+00   1.5527344e+00   1.5332031e+00   1.5185547e+00   1.5039062e+00   1.4990234e+00   1.4892578e+00   1.4794922e+00   1.4794922e+00   1.4746094e+00   1.4746094e+00   1.4746094e+00   1.4697266e+00   1.4697266e+00   1.4648438e+00   1.4550781e+00   1.4453125e+00   1.4355469e+00   1.4306641e+00   1.4208984e+00   1.4111328e+00   1.4013672e+00   1.3916016e+00   1.3867188e+00   1.3720703e+00   1.3623047e+00   1.3525391e+00   1.3427734e+00   1.3281250e+00   1.3134766e+00   1.3037109e+00   1.2890625e+00   1.2744141e+00   1.2646484e+00   1.2548828e+00   1.2451172e+00   1.2353516e+00   1.2402344e+00   1.2695312e+00   1.3134766e+00   1.3867188e+00   1.4746094e+00   1.5673828e+00   1.6552734e+00   1.7431641e+00   1.8261719e+00   1.8994141e+00   1.9628906e+00   2.0166016e+00   2.0605469e+00   2.0947266e+00   2.1240234e+00   2.1386719e+00   2.1484375e+00   2.1484375e+00   2.1435547e+00   2.1337891e+00   2.1240234e+00   2.1044922e+00   2.0800781e+00   2.0556641e+00   2.0214844e+00   1.9873047e+00   1.9482422e+00   1.8994141e+00   1.8505859e+00   1.8066406e+00   1.7578125e+00   1.7187500e+00   1.6845703e+00   1.6455078e+00   1.6162109e+00   1.5917969e+00   1.5673828e+00   1.5478516e+00   1.5332031e+00   1.5185547e+00   1.5087891e+00   1.4990234e+00   1.4892578e+00   1.4794922e+00   1.4697266e+00   1.4599609e+00   1.4501953e+00   1.4404297e+00   1.4257812e+00   1.4160156e+00   1.4013672e+00   1.3867188e+00   1.3720703e+00   1.3574219e+00   1.3427734e+00   1.3330078e+00   1.3134766e+00   1.2988281e+00   1.2792969e+00   1.2646484e+00   1.2451172e+00   1.2304688e+00   1.2158203e+00   1.1962891e+00   1.1865234e+00   1.1669922e+00   1.1572266e+00   1.1376953e+00   1.1279297e+00   1.1230469e+00   1.1279297e+00   1.1474609e+00   1.1962891e+00   1.2646484e+00   1.3476562e+00   1.4355469e+00   1.5283203e+00   1.6162109e+00   1.6992188e+00   1.7724609e+00   1.8408203e+00   1.8945312e+00   1.9384766e+00   1.9677734e+00   1.9970703e+00   2.0117188e+00   2.0263672e+00   2.0361328e+00   2.0361328e+00   2.0312500e+00   2.0312500e+00   2.0214844e+00   2.0068359e+00   1.9873047e+00   1.9677734e+00   1.9433594e+00   1.9140625e+00   1.8896484e+00   1.8505859e+00   1.8164062e+00   1.7822266e+00   1.7480469e+00   1.7138672e+00   1.6845703e+00   1.6601562e+00   1.6357422e+00   1.6162109e+00   1.6015625e+00   1.5966797e+00   1.5966797e+00   1.5917969e+00   1.5966797e+00   1.5869141e+00   1.5820312e+00   1.5771484e+00   1.5625000e+00   1.5576172e+00   1.5429688e+00   1.5283203e+00   1.5185547e+00   1.5039062e+00   1.4892578e+00   1.4746094e+00   1.4599609e+00   1.4404297e+00   1.4306641e+00   1.4160156e+00   1.3867188e+00   1.3671875e+00   1.3378906e+00   1.3134766e+00   1.2988281e+00   1.2792969e+00   1.2597656e+00   1.2451172e+00   1.2304688e+00   1.2109375e+00   1.2011719e+00   1.1865234e+00   1.1767578e+00   1.1718750e+00   1.1621094e+00   1.1572266e+00   1.1572266e+00   1.1669922e+00   1.2011719e+00   1.2548828e+00   1.3427734e+00   1.4306641e+00   1.5283203e+00   1.6259766e+00   1.7138672e+00   1.7968750e+00   1.8701172e+00   1.9335938e+00   1.9824219e+00   2.0214844e+00   2.0556641e+00   2.0751953e+00   2.0898438e+00   2.0996094e+00   2.0996094e+00   2.0898438e+00   2.0800781e+00   2.0654297e+00   2.0458984e+00   2.0214844e+00   1.9921875e+00   1.9677734e+00   1.9287109e+00   1.8945312e+00   1.8603516e+00   1.8261719e+00   1.7968750e+00   1.7626953e+00   1.7236328e+00   1.6894531e+00   1.6601562e+00   1.6308594e+00   1.6113281e+00   1.5966797e+00   1.5820312e+00   1.5722656e+00   1.5576172e+00   1.5478516e+00   1.5380859e+00   1.5234375e+00   1.5185547e+00   1.4941406e+00   1.4794922e+00   1.4697266e+00   1.4501953e+00   1.4306641e+00   1.4111328e+00   1.3916016e+00   1.3671875e+00   1.3476562e+00   1.3281250e+00   1.3085938e+00   1.2890625e+00   1.2646484e+00   1.2451172e+00   1.2353516e+00   1.2158203e+00   1.1962891e+00   1.1767578e+00   1.1669922e+00   1.1572266e+00   1.1474609e+00   1.1523438e+00   1.1523438e+00   1.1474609e+00   1.1523438e+00   1.1474609e+00   1.1425781e+00   1.1425781e+00   1.1425781e+00   1.1376953e+00   1.1376953e+00   1.1328125e+00   1.1279297e+00   1.1328125e+00   1.1376953e+00   1.1669922e+00   1.2207031e+00   1.2988281e+00   1.3964844e+00   1.4892578e+00   1.5917969e+00   1.6748047e+00   1.7578125e+00   1.8261719e+00   1.8896484e+00   1.9433594e+00   1.9824219e+00   2.0166016e+00   2.0361328e+00   2.0507812e+00   2.0605469e+00   2.0605469e+00   2.0605469e+00   2.0507812e+00   2.0361328e+00   2.0166016e+00   1.9921875e+00   1.9677734e+00   1.9287109e+00   1.8847656e+00   1.8457031e+00   1.8017578e+00   1.7626953e+00   1.7187500e+00   1.6845703e+00   1.6503906e+00   1.6210938e+00   1.5917969e+00   1.5722656e+00   1.5576172e+00   1.5478516e+00   1.5429688e+00   1.5332031e+00   1.5332031e+00   1.5283203e+00   1.5283203e+00   1.5283203e+00   1.5234375e+00   1.5234375e+00   1.5185547e+00   1.5136719e+00   1.4990234e+00   1.4892578e+00   1.4746094e+00   1.4550781e+00   1.4404297e+00   1.4257812e+00   1.4062500e+00   1.3818359e+00   1.3623047e+00   1.3476562e+00   1.3281250e+00   1.3134766e+00   1.3037109e+00   1.2939453e+00   1.2890625e+00   1.2890625e+00   1.2890625e+00   1.2939453e+00   1.3037109e+00   1.3085938e+00   1.3183594e+00   1.3232422e+00   1.3281250e+00   1.3232422e+00   1.3183594e+00   1.3134766e+00   1.3037109e+00   1.2890625e+00   1.2744141e+00   1.2548828e+00   1.2500000e+00   1.2695312e+00   1.3037109e+00   1.3623047e+00   1.4355469e+00   1.5039062e+00   1.5869141e+00   1.6601562e+00   1.7382812e+00   1.8017578e+00   1.8701172e+00   1.9189453e+00   1.9580078e+00   1.9921875e+00   2.0214844e+00   2.0410156e+00   2.0556641e+00   2.0703125e+00   2.0654297e+00   2.0605469e+00   2.0410156e+00   2.0214844e+00   1.9970703e+00   1.9628906e+00   1.9238281e+00   1.8750000e+00   1.8310547e+00   1.7822266e+00   1.7285156e+00   1.6894531e+00   1.6503906e+00   1.6162109e+00   1.5869141e+00   1.5673828e+00   1.5576172e+00   1.5478516e+00   1.5478516e+00   1.5478516e+00   1.5527344e+00   1.5576172e+00   1.5673828e+00   1.5722656e+00   1.5722656e+00   1.5771484e+00   1.5722656e+00   1.5625000e+00   1.5478516e+00   1.5283203e+00   1.5087891e+00   1.4843750e+00   1.4550781e+00   1.4306641e+00   1.4013672e+00   1.3769531e+00   1.3476562e+00   1.3232422e+00   1.3085938e+00   1.2890625e+00   1.2744141e+00   1.2646484e+00   1.2597656e+00   1.2597656e+00   1.2597656e+00   1.2646484e+00   1.2792969e+00   1.2841797e+00   1.2988281e+00   1.3037109e+00   1.3085938e+00   1.3085938e+00   1.3085938e+00   1.3037109e+00   1.2939453e+00   1.2890625e+00   1.2988281e+00   1.3183594e+00   1.3574219e+00   1.4062500e+00   1.4697266e+00   1.5380859e+00   1.6015625e+00   1.6601562e+00   1.7138672e+00   1.7626953e+00   1.8066406e+00   1.8457031e+00   1.8750000e+00   1.8994141e+00   1.9189453e+00   1.9287109e+00   1.9384766e+00   1.9384766e+00   1.9335938e+00   1.9140625e+00   1.8945312e+00   1.8603516e+00   1.8212891e+00   1.7724609e+00   1.7285156e+00   1.6748047e+00   1.6210938e+00   1.5673828e+00   1.5185547e+00   1.4746094e+00   1.4355469e+00   1.4013672e+00   1.3720703e+00   1.3574219e+00   1.3427734e+00   1.3378906e+00   1.3378906e+00   1.3378906e+00   1.3427734e+00   1.3574219e+00   1.3671875e+00   1.3769531e+00   1.3867188e+00   1.3964844e+00   1.4013672e+00   1.4013672e+00   1.3964844e+00   1.3818359e+00   1.3623047e+00   1.3476562e+00   1.3330078e+00   1.3085938e+00   1.2792969e+00   1.2548828e+00   1.2353516e+00   1.2109375e+00   1.1914062e+00   1.1816406e+00   1.1669922e+00   1.1572266e+00   1.1523438e+00   1.1474609e+00   1.1425781e+00   1.1376953e+00   1.1328125e+00   1.1328125e+00   1.1376953e+00   1.1376953e+00   1.1376953e+00   1.1425781e+00   1.1621094e+00   1.1816406e+00   1.2255859e+00   1.2841797e+00   1.3525391e+00   1.4160156e+00   1.4892578e+00   1.5527344e+00   1.6113281e+00   1.6552734e+00   1.6943359e+00   1.7285156e+00   1.7529297e+00   1.7626953e+00   1.7675781e+00   1.7626953e+00   1.7529297e+00   1.7382812e+00   1.7236328e+00   1.7041016e+00   1.6796875e+00   1.6455078e+00   1.6162109e+00   1.5722656e+00   1.5332031e+00   1.4892578e+00   1.4501953e+00   1.4160156e+00   1.3818359e+00   1.3525391e+00   1.3330078e+00   1.3134766e+00   1.3037109e+00   1.2988281e+00   1.2939453e+00   1.2939453e+00   1.2939453e+00   1.2988281e+00   1.2988281e+00   1.2988281e+00   1.2988281e+00   1.2988281e+00   1.2988281e+00   1.2939453e+00   1.2890625e+00   1.2890625e+00   1.2841797e+00   1.2792969e+00   1.2744141e+00   1.2646484e+00   1.2548828e+00   1.2500000e+00   1.2402344e+00   1.2304688e+00   1.2207031e+00   1.2109375e+00   1.2060547e+00   1.1914062e+00   1.1914062e+00   1.1865234e+00   1.1816406e+00   1.1865234e+00   1.1914062e+00   1.1962891e+00   1.1962891e+00   1.2011719e+00   1.2109375e+00   1.2060547e+00   1.2158203e+00   1.2255859e+00   1.2402344e+00   1.2841797e+00   1.3378906e+00   1.4062500e+00   1.4941406e+00   1.5820312e+00   1.6650391e+00   1.7382812e+00   1.8017578e+00   1.8554688e+00   1.8945312e+00   1.9189453e+00   1.9384766e+00   1.9433594e+00   1.9433594e+00   1.9335938e+00   1.9189453e+00   1.8945312e+00   1.8603516e+00   1.8261719e+00   1.7871094e+00   1.7333984e+00   1.6796875e+00   1.6308594e+00   1.5820312e+00   1.5380859e+00   1.4990234e+00   1.4648438e+00   1.4355469e+00   1.4160156e+00   1.4013672e+00   1.3867188e+00   1.3769531e+00   1.3671875e+00   1.3623047e+00   1.3574219e+00   1.3525391e+00   1.3525391e+00   1.3476562e+00   1.3476562e+00   1.3427734e+00   1.3427734e+00   1.3476562e+00   1.3427734e+00   1.3427734e+00   1.3378906e+00   1.3330078e+00   1.3281250e+00   1.3232422e+00   1.3183594e+00   1.3085938e+00   1.3037109e+00   1.3037109e+00   1.2939453e+00   1.2890625e+00   1.2890625e+00   1.2792969e+00   1.2744141e+00   1.2646484e+00   1.2548828e+00   1.2451172e+00   1.2304688e+00   1.2158203e+00   1.2011719e+00   1.1914062e+00   1.1914062e+00   1.2109375e+00   1.2500000e+00   1.3281250e+00   1.4208984e+00   1.5283203e+00   1.6259766e+00   1.7236328e+00   1.8115234e+00   1.8994141e+00   1.9726562e+00   2.0410156e+00   2.0947266e+00   2.1386719e+00   2.1679688e+00   2.1875000e+00   2.2021484e+00   2.2021484e+00   2.1923828e+00   2.1777344e+00   2.1582031e+00   2.1337891e+00   2.1093750e+00   2.0800781e+00   2.0458984e+00   2.0117188e+00   1.9726562e+00   1.9287109e+00   1.8994141e+00   1.8603516e+00   1.8261719e+00   1.7968750e+00   1.7724609e+00   1.7431641e+00   1.7236328e+00   1.7138672e+00   1.6992188e+00   1.6894531e+00   1.6748047e+00   1.6601562e+00   1.6455078e+00   1.6308594e+00   1.6113281e+00   1.5869141e+00   1.5576172e+00   1.5429688e+00   1.5283203e+00   1.5087891e+00   1.4892578e+00   1.4697266e+00   1.4453125e+00   1.4306641e+00   1.4111328e+00   1.4013672e+00   1.3916016e+00   1.3769531e+00   1.3671875e+00   1.3476562e+00   1.3330078e+00   1.3183594e+00   1.3183594e+00   1.3183594e+00   1.3085938e+00   1.3037109e+00   1.2988281e+00   1.3037109e+00   1.3232422e+00   1.3574219e+00   1.4160156e+00   1.4941406e+00   1.5673828e+00   1.6552734e+00   1.7382812e+00   1.8212891e+00   1.8896484e+00   1.9531250e+00   2.0068359e+00   2.0458984e+00   2.0654297e+00   2.0849609e+00   2.0947266e+00   2.0947266e+00   2.0947266e+00   2.0849609e+00   2.0703125e+00   2.0507812e+00   2.0214844e+00   1.9921875e+00   1.9580078e+00   1.9189453e+00   1.8701172e+00   1.8310547e+00   1.7773438e+00   1.7333984e+00   1.6845703e+00   1.6455078e+00   1.6064453e+00   1.5722656e+00   1.5429688e+00   1.5234375e+00   1.5039062e+00   1.4892578e+00   1.4746094e+00   1.4648438e+00   1.4550781e+00   1.4501953e+00   1.4453125e+00   1.4404297e+00   1.4355469e+00   1.4257812e+00   1.4208984e+00   1.4111328e+00   1.3964844e+00   1.3867188e+00   1.3769531e+00   1.3671875e+00   1.3574219e+00   1.3525391e+00   1.3378906e+00   1.3281250e+00   1.3134766e+00   1.3037109e+00   1.2939453e+00   1.2792969e+00   1.2646484e+00   1.2500000e+00   1.2402344e+00   1.2451172e+00   1.2353516e+00   1.2353516e+00   1.2451172e+00   1.2548828e+00   1.2988281e+00   1.3574219e+00   1.4257812e+00   1.5136719e+00   1.5966797e+00   1.6796875e+00   1.7480469e+00   1.8115234e+00   1.8701172e+00   1.9091797e+00   1.9433594e+00   1.9775391e+00   2.0019531e+00   2.0117188e+00   2.0117188e+00   2.0019531e+00   1.9824219e+00   1.9628906e+00   1.9335938e+00   1.9091797e+00   1.8750000e+00   1.8359375e+00   1.7968750e+00   1.7578125e+00   1.7138672e+00   1.6748047e+00   1.6406250e+00   1.6064453e+00   1.5771484e+00   1.5527344e+00   1.5283203e+00   1.5087891e+00   1.4941406e+00   1.4843750e+00   1.4746094e+00   1.4648438e+00   1.4550781e+00   1.4501953e+00   1.4453125e+00   1.4404297e+00   1.4355469e+00   1.4306641e+00   1.4257812e+00   1.4208984e+00   1.4111328e+00   1.4062500e+00   1.3964844e+00   1.3867188e+00   1.3769531e+00   1.3720703e+00   1.3623047e+00   1.3525391e+00   1.3427734e+00   1.3330078e+00   1.3183594e+00   1.3085938e+00   1.2939453e+00   1.2841797e+00   1.2695312e+00   1.2597656e+00   1.2451172e+00   1.2353516e+00   1.2304688e+00   1.2402344e+00   1.2695312e+00   1.3183594e+00   1.3916016e+00   1.4697266e+00   1.5527344e+00   1.6357422e+00   1.7041016e+00   1.7724609e+00   1.8310547e+00   1.8847656e+00   1.9238281e+00   1.9580078e+00   1.9873047e+00   2.0068359e+00   2.0214844e+00   2.0263672e+00   2.0263672e+00   2.0263672e+00   2.0166016e+00   2.0068359e+00   1.9873047e+00   1.9628906e+00   1.9384766e+00   1.9140625e+00   1.8750000e+00   1.8408203e+00   1.7968750e+00   1.7626953e+00   1.7236328e+00   1.6845703e+00   1.6503906e+00   1.6259766e+00   1.5966797e+00   1.5722656e+00   1.5527344e+00   1.5380859e+00   1.5283203e+00   1.5185547e+00   1.5136719e+00   1.5039062e+00   1.4990234e+00   1.4892578e+00   1.4843750e+00   1.4794922e+00   1.4746094e+00   1.4648438e+00   1.4550781e+00   1.4453125e+00   1.4306641e+00   1.4257812e+00   1.4111328e+00   1.3964844e+00   1.3867188e+00   1.3720703e+00   1.3623047e+00   1.3476562e+00   1.3330078e+00   1.3183594e+00   1.3037109e+00   1.2890625e+00   1.2744141e+00   1.2597656e+00   1.2500000e+00   1.2353516e+00   1.2255859e+00   1.2158203e+00   1.2158203e+00   1.2353516e+00   1.2744141e+00   1.3330078e+00   1.4062500e+00   1.4843750e+00   1.5625000e+00   1.6406250e+00   1.7041016e+00   1.7724609e+00   1.8310547e+00   1.8798828e+00   1.9238281e+00   1.9580078e+00   1.9873047e+00   2.0117188e+00   2.0214844e+00   2.0263672e+00   2.0214844e+00   2.0214844e+00   2.0166016e+00   2.0068359e+00   1.9921875e+00   1.9726562e+00   1.9482422e+00   1.9238281e+00   1.8847656e+00   1.8505859e+00   1.8115234e+00   1.7773438e+00   1.7333984e+00   1.6992188e+00   1.6601562e+00   1.6308594e+00   1.6064453e+00   1.5771484e+00   1.5625000e+00   1.5429688e+00   1.5283203e+00   1.5136719e+00   1.4990234e+00   1.4892578e+00   1.4794922e+00   1.4648438e+00   1.4501953e+00   1.4404297e+00   1.4306641e+00   1.4208984e+00   1.4111328e+00   1.4013672e+00   1.3867188e+00   1.3671875e+00   1.3525391e+00   1.3378906e+00   1.3183594e+00   1.3037109e+00   1.2890625e+00   1.2792969e+00   1.2597656e+00   1.2451172e+00   1.2353516e+00   1.2207031e+00   1.2109375e+00   1.1962891e+00   1.1767578e+00   1.1718750e+00   1.1572266e+00   1.1425781e+00   1.1328125e+00   1.1230469e+00   1.1230469e+00   1.1328125e+00   1.1425781e+00   1.1572266e+00   1.1865234e+00   1.2207031e+00   1.2646484e+00   1.3378906e+00   1.4208984e+00   1.5039062e+00   1.5771484e+00   1.6601562e+00   1.7333984e+00   1.8017578e+00   1.8652344e+00   1.9287109e+00   1.9824219e+00   2.0214844e+00   2.0410156e+00   2.0507812e+00   2.0556641e+00   2.0556641e+00   2.0458984e+00   2.0410156e+00   2.0263672e+00   2.0068359e+00   1.9824219e+00   1.9580078e+00   1.9335938e+00   1.8994141e+00   1.8603516e+00   1.8261719e+00   1.7871094e+00   1.7480469e+00   1.7138672e+00   1.6845703e+00   1.6601562e+00   1.6357422e+00   1.6210938e+00   1.6015625e+00   1.5917969e+00   1.5771484e+00   1.5673828e+00   1.5576172e+00   1.5478516e+00   1.5380859e+00   1.5283203e+00   1.5185547e+00   1.5087891e+00   1.4990234e+00   1.4843750e+00   1.4746094e+00   1.4599609e+00   1.4501953e+00   1.4355469e+00   1.4257812e+00   1.4062500e+00   1.3964844e+00   1.3916016e+00   1.3769531e+00   1.3623047e+00   1.3525391e+00   1.3378906e+00   1.3232422e+00   1.3085938e+00   1.2988281e+00   1.2890625e+00   1.2744141e+00   1.2695312e+00   1.2548828e+00   1.2402344e+00   1.2304688e+00   1.2255859e+00   1.2158203e+00   1.2109375e+00   1.2158203e+00   1.2353516e+00   1.2792969e+00   1.3330078e+00   1.4111328e+00   1.4843750e+00   1.5673828e+00   1.6406250e+00   1.7089844e+00   1.7822266e+00   1.8457031e+00   1.8945312e+00   1.9384766e+00   1.9677734e+00   1.9921875e+00   2.0117188e+00   2.0214844e+00   2.0263672e+00   2.0263672e+00   2.0166016e+00   2.0068359e+00   1.9921875e+00   1.9726562e+00   1.9482422e+00   1.9335938e+00   1.9042969e+00   1.8701172e+00   1.8359375e+00   1.8017578e+00   1.7724609e+00   1.7382812e+00   1.6992188e+00   1.6699219e+00   1.6503906e+00   1.6259766e+00   1.6113281e+00   1.5966797e+00   1.5771484e+00   1.5722656e+00   1.5625000e+00   1.5478516e+00   1.5380859e+00   1.5234375e+00   1.5039062e+00   1.4892578e+00   1.4746094e+00   1.4550781e+00   1.4355469e+00   1.4160156e+00   1.4013672e+00   1.3867188e+00   1.3720703e+00   1.3574219e+00   1.3427734e+00   1.3281250e+00   1.3085938e+00   1.2988281e+00   1.2841797e+00   1.2744141e+00   1.2548828e+00   1.2402344e+00   1.2207031e+00   1.2060547e+00   1.1914062e+00   1.1767578e+00   1.1718750e+00   1.1621094e+00   1.1572266e+00   1.1523438e+00   1.1474609e+00   1.1425781e+00   1.1376953e+00   1.1328125e+00   1.1279297e+00   1.1230469e+00   1.1181641e+00   1.1132812e+00   1.1083984e+00   1.1035156e+00   1.1035156e+00   1.1083984e+00   1.1328125e+00   1.1767578e+00   1.2402344e+00   1.3085938e+00   1.4062500e+00   1.4990234e+00   1.5917969e+00   1.6699219e+00   1.7529297e+00   1.8212891e+00   1.8896484e+00   1.9384766e+00   1.9824219e+00   2.0166016e+00   2.0458984e+00   2.0605469e+00   2.0751953e+00   2.0751953e+00   2.0751953e+00   2.0703125e+00   2.0605469e+00   2.0410156e+00   2.0263672e+00   1.9970703e+00   1.9677734e+00   1.9384766e+00   1.8994141e+00   1.8554688e+00   1.8212891e+00   1.7773438e+00   1.7382812e+00   1.6992188e+00   1.6699219e+00   1.6406250e+00   1.6113281e+00   1.5869141e+00   1.5673828e+00   1.5527344e+00   1.5380859e+00   1.5429688e+00   1.5380859e+00   1.5380859e+00   1.5332031e+00   1.5283203e+00   1.5185547e+00   1.5136719e+00   1.4990234e+00   1.4843750e+00   1.4550781e+00   1.4453125e+00   1.4404297e+00   1.4306641e+00   1.4160156e+00   1.4013672e+00   1.3867188e+00   1.3720703e+00   1.3574219e+00   1.3330078e+00   1.3183594e+00   1.2939453e+00   1.2646484e+00   1.2451172e+00   1.2207031e+00   1.2060547e+00   1.1865234e+00   1.1718750e+00   1.1523438e+00   1.1425781e+00   1.1279297e+00   1.1181641e+00   1.1083984e+00   1.1035156e+00   1.0937500e+00   1.0888672e+00   1.0888672e+00   1.0839844e+00   1.0888672e+00   1.0888672e+00   1.0839844e+00   1.0839844e+00   1.0839844e+00   1.0791016e+00   1.0791016e+00   1.0742188e+00   1.0742188e+00   1.0791016e+00   1.0937500e+00   1.1328125e+00   1.1865234e+00   1.2646484e+00   1.3574219e+00   1.4599609e+00   1.5478516e+00   1.6406250e+00   1.7236328e+00   1.8017578e+00   1.8652344e+00   1.9189453e+00   1.9677734e+00   2.0019531e+00   2.0263672e+00   2.0507812e+00   2.0654297e+00   2.0751953e+00   2.0751953e+00   2.0654297e+00   2.0605469e+00   2.0458984e+00   2.0214844e+00   1.9970703e+00   1.9677734e+00   1.9287109e+00   1.8896484e+00   1.8505859e+00   1.8017578e+00   1.7626953e+00   1.7187500e+00   1.6796875e+00   1.6455078e+00   1.6162109e+00   1.5917969e+00   1.5673828e+00   1.5478516e+00   1.5332031e+00   1.5185547e+00   1.5039062e+00   1.4941406e+00   1.4892578e+00   1.4794922e+00   1.4746094e+00   1.4599609e+00   1.4550781e+00   1.4453125e+00   1.4306641e+00   1.4208984e+00   1.4111328e+00   1.3964844e+00   1.3818359e+00   1.3671875e+00   1.3574219e+00   1.3378906e+00   1.3232422e+00   1.3085938e+00   1.2939453e+00   1.2744141e+00   1.2597656e+00   1.2451172e+00   1.2353516e+00   1.2207031e+00   1.2011719e+00   1.1865234e+00   1.1816406e+00   1.1669922e+00   1.1572266e+00   1.1474609e+00   1.1425781e+00   1.1376953e+00   1.1376953e+00   1.1328125e+00   1.1279297e+00   1.1328125e+00   1.1279297e+00   1.1328125e+00   1.1425781e+00   1.1474609e+00   1.1621094e+00   1.1669922e+00   1.1718750e+00   1.1718750e+00   1.1718750e+00   1.1718750e+00   1.1767578e+00   1.2011719e+00   1.2304688e+00   1.2988281e+00   1.3769531e+00   1.4697266e+00   1.5527344e+00   1.6455078e+00   1.7285156e+00   1.8017578e+00   1.8652344e+00   1.9189453e+00   1.9628906e+00   1.9873047e+00   2.0068359e+00   2.0117188e+00   2.0166016e+00   2.0117188e+00   2.0019531e+00   1.9921875e+00   1.9726562e+00   1.9482422e+00   1.9238281e+00   1.8945312e+00   1.8554688e+00   1.8164062e+00   1.7724609e+00   1.7382812e+00   1.6992188e+00   1.6552734e+00   1.6210938e+00   1.5966797e+00   1.5722656e+00   1.5527344e+00   1.5380859e+00   1.5234375e+00   1.5136719e+00   1.5039062e+00   1.4941406e+00   1.4892578e+00   1.4794922e+00   1.4697266e+00   1.4648438e+00   1.4550781e+00   1.4404297e+00   1.4355469e+00   1.4257812e+00   1.4160156e+00   1.4062500e+00   1.3964844e+00   1.3818359e+00   1.3720703e+00   1.3574219e+00   1.3525391e+00   1.3330078e+00   1.3232422e+00   1.3134766e+00   1.2988281e+00   1.2890625e+00   1.2792969e+00   1.2646484e+00   1.2548828e+00   1.2451172e+00   1.2304688e+00   1.2255859e+00   1.2207031e+00   1.2060547e+00   1.1962891e+00   1.1914062e+00   1.1865234e+00   1.1767578e+00   1.1718750e+00   1.1572266e+00   1.1523438e+00   1.1474609e+00   1.1474609e+00   1.1621094e+00   1.1914062e+00   1.2402344e+00   1.3183594e+00   1.4062500e+00   1.4990234e+00   1.5917969e+00   1.6845703e+00   1.7724609e+00   1.8505859e+00   1.9140625e+00   1.9726562e+00   2.0166016e+00   2.0556641e+00   2.0849609e+00   2.1044922e+00   2.1142578e+00   2.1191406e+00   2.1191406e+00   2.1142578e+00   2.1044922e+00   2.0849609e+00   2.0654297e+00   2.0361328e+00   2.0068359e+00   1.9677734e+00   1.9287109e+00   1.8847656e+00   1.8457031e+00   1.8017578e+00   1.7578125e+00   1.7187500e+00   1.6894531e+00   1.6552734e+00   1.6308594e+00   1.6064453e+00   1.5869141e+00   1.5673828e+00   1.5527344e+00   1.5429688e+00   1.5234375e+00   1.5087891e+00   1.4941406e+00   1.4843750e+00   1.4697266e+00   1.4550781e+00   1.4453125e+00   1.4355469e+00   1.4208984e+00   1.4062500e+00   1.3964844e+00   1.3818359e+00   1.3671875e+00   1.3574219e+00   1.3427734e+00   1.3281250e+00   1.3085938e+00   1.2939453e+00   1.2841797e+00   1.2695312e+00   1.2548828e+00   1.2402344e+00   1.2304688e+00   1.2158203e+00   1.2011719e+00   1.1914062e+00   1.1816406e+00   1.1718750e+00   1.1669922e+00   1.1572266e+00   1.1474609e+00   1.1425781e+00   1.1328125e+00   1.1230469e+00   1.1181641e+00   1.1083984e+00   1.0986328e+00   1.0888672e+00   1.0888672e+00   1.0888672e+00   1.0986328e+00   1.1279297e+00   1.1865234e+00   1.2646484e+00   1.3720703e+00   1.4746094e+00   1.5722656e+00   1.6650391e+00   1.7529297e+00   1.8359375e+00   1.9042969e+00   1.9628906e+00   2.0117188e+00   2.0507812e+00   2.0800781e+00   2.0947266e+00   2.1093750e+00   2.1142578e+00   2.1093750e+00   2.1044922e+00   2.0898438e+00   2.0751953e+00   2.0507812e+00   2.0214844e+00   1.9921875e+00   1.9531250e+00   1.9140625e+00   1.8701172e+00   1.8261719e+00   1.7871094e+00   1.7480469e+00   1.7089844e+00   1.6748047e+00   1.6503906e+00   1.6210938e+00   1.6015625e+00   1.5820312e+00   1.5673828e+00   1.5576172e+00   1.5478516e+00   1.5380859e+00   1.5283203e+00   1.5185547e+00   1.5087891e+00   1.4941406e+00   1.4892578e+00   1.4746094e+00   1.4599609e+00   1.4501953e+00   1.4355469e+00   1.4208984e+00   1.4062500e+00   1.3916016e+00   1.3769531e+00   1.3623047e+00   1.3427734e+00   1.3281250e+00   1.3037109e+00   1.2890625e+00   1.2744141e+00   1.2500000e+00   1.2353516e+00   1.2158203e+00   1.2011719e+00   1.1865234e+00   1.1718750e+00   1.1572266e+00   1.1523438e+00   1.1376953e+00   1.1328125e+00   1.1279297e+00   1.1181641e+00   1.1132812e+00   1.1035156e+00   1.0986328e+00   1.0986328e+00   1.0937500e+00   1.0888672e+00   1.0839844e+00   1.0791016e+00   1.0791016e+00   1.0839844e+00   1.0986328e+00   1.1425781e+00   1.1962891e+00   1.2841797e+00   1.3867188e+00   1.4941406e+00   1.5820312e+00   1.6796875e+00   1.7675781e+00   1.8408203e+00   1.9042969e+00   1.9531250e+00   1.9970703e+00   2.0312500e+00   2.0507812e+00   2.0654297e+00   2.0703125e+00   2.0703125e+00   2.0605469e+00   2.0458984e+00   2.0263672e+00   2.0019531e+00   1.9775391e+00   1.9433594e+00   1.9091797e+00   1.8652344e+00   1.8212891e+00   1.7871094e+00   1.7431641e+00   1.6992188e+00   1.6650391e+00   1.6308594e+00   1.5966797e+00   1.5722656e+00   1.5478516e+00   1.5332031e+00   1.5234375e+00   1.5136719e+00   1.5087891e+00   1.4990234e+00   1.4941406e+00   1.4892578e+00   1.4794922e+00   1.4746094e+00   1.4648438e+00   1.4599609e+00   1.4501953e+00   1.4404297e+00   1.4306641e+00   1.4257812e+00   1.4111328e+00   1.4062500e+00   1.3964844e+00   1.3769531e+00   1.3623047e+00   1.3525391e+00   1.3378906e+00   1.3281250e+00   1.3134766e+00   1.3037109e+00   1.2890625e+00   1.2792969e+00   1.2695312e+00   1.2646484e+00   1.2548828e+00   1.2402344e+00   1.2304688e+00   1.2207031e+00   1.2109375e+00   1.2011719e+00   1.1914062e+00   1.1865234e+00   1.1767578e+00   1.1767578e+00   1.1865234e+00   1.2255859e+00   1.2792969e+00   1.3525391e+00   1.4355469e+00   1.5234375e+00   1.6162109e+00   1.6943359e+00   1.7675781e+00   1.8310547e+00   1.8847656e+00   1.9238281e+00   1.9531250e+00   1.9726562e+00   1.9873047e+00   1.9921875e+00   1.9873047e+00   1.9824219e+00   1.9677734e+00   1.9482422e+00   1.9238281e+00   1.8896484e+00   1.8554688e+00   1.8115234e+00   1.7675781e+00   1.7285156e+00   1.6894531e+00   1.6455078e+00   1.6113281e+00   1.5771484e+00   1.5478516e+00   1.5283203e+00   1.5087891e+00   1.4941406e+00   1.4843750e+00   1.4746094e+00   1.4697266e+00   1.4599609e+00   1.4550781e+00   1.4501953e+00   1.4453125e+00   1.4404297e+00   1.4355469e+00   1.4306641e+00   1.4208984e+00   1.4111328e+00   1.4013672e+00   1.3867188e+00   1.3720703e+00   1.3623047e+00   1.3476562e+00   1.3378906e+00   1.3232422e+00   1.3085938e+00   1.2988281e+00   1.2988281e+00   1.3037109e+00   1.3037109e+00   1.3037109e+00   1.3037109e+00   1.2988281e+00   1.2988281e+00   1.2890625e+00   1.2890625e+00   1.2792969e+00   1.2792969e+00   1.2744141e+00   1.2695312e+00   1.2646484e+00   1.2597656e+00   1.2646484e+00   1.2988281e+00   1.3427734e+00   1.4160156e+00   1.4892578e+00   1.5722656e+00   1.6503906e+00   1.7333984e+00   1.8115234e+00   1.8798828e+00   1.9433594e+00   1.9921875e+00   2.0361328e+00   2.0654297e+00   2.0947266e+00   2.1093750e+00   2.1191406e+00   2.1240234e+00   2.1191406e+00   2.1093750e+00   2.1044922e+00   2.0849609e+00   2.0654297e+00   2.0410156e+00   2.0068359e+00   1.9726562e+00   1.9384766e+00   1.8945312e+00   1.8554688e+00   1.8164062e+00   1.7773438e+00   1.7382812e+00   1.7138672e+00   1.6845703e+00   1.6552734e+00   1.6308594e+00   1.6162109e+00   1.6015625e+00   1.5869141e+00   1.5771484e+00   1.5673828e+00   1.5576172e+00   1.5478516e+00   1.5429688e+00   1.5283203e+00   1.5234375e+00   1.5185547e+00   1.5039062e+00   1.4892578e+00   1.4843750e+00   1.4648438e+00   1.4501953e+00   1.4355469e+00   1.4257812e+00   1.4111328e+00   1.3916016e+00   1.3769531e+00   1.3623047e+00   1.3525391e+00   1.3330078e+00   1.3232422e+00   1.3085938e+00   1.2939453e+00   1.2841797e+00   1.2646484e+00   1.2500000e+00   1.2402344e+00   1.2255859e+00   1.2109375e+00   1.2011719e+00   1.1962891e+00   1.1865234e+00   1.1865234e+00   1.2011719e+00   1.2402344e+00   1.2988281e+00   1.3818359e+00   1.4746094e+00   1.5673828e+00   1.6455078e+00   1.7333984e+00   1.8115234e+00   1.8847656e+00   1.9384766e+00   1.9921875e+00   2.0312500e+00   2.0654297e+00   2.0898438e+00   2.1093750e+00   2.1142578e+00   2.1191406e+00   2.1191406e+00   2.1093750e+00   2.0947266e+00   2.0800781e+00   2.0605469e+00   2.0361328e+00   2.0019531e+00   1.9677734e+00   1.9238281e+00   1.8847656e+00   1.8408203e+00   1.7919922e+00   1.7480469e+00   1.7089844e+00   1.6699219e+00   1.6357422e+00   1.6015625e+00   1.5820312e+00   1.5625000e+00   1.5478516e+00   1.5380859e+00   1.5234375e+00   1.5185547e+00   1.5087891e+00   1.5039062e+00   1.4941406e+00   1.4843750e+00   1.4746094e+00   1.4648438e+00   1.4501953e+00   1.4355469e+00   1.4208984e+00   1.4062500e+00   1.3916016e+00   1.3769531e+00   1.3574219e+00   1.3378906e+00   1.3183594e+00   1.3037109e+00   1.2841797e+00   1.2695312e+00   1.2500000e+00   1.2353516e+00   1.2255859e+00   1.2109375e+00   1.2060547e+00   1.1914062e+00   1.1816406e+00   1.1718750e+00   1.1621094e+00   1.1523438e+00   1.1474609e+00   1.1376953e+00   1.1279297e+00   1.1181641e+00   1.1132812e+00   1.1035156e+00   1.0986328e+00   1.1035156e+00   1.1230469e+00   1.1621094e+00   1.2304688e+00   1.3183594e+00   1.4111328e+00   1.4990234e+00   1.5917969e+00   1.6796875e+00   1.7578125e+00   1.8164062e+00   1.8798828e+00   1.9335938e+00   1.9726562e+00   2.0019531e+00   2.0263672e+00   2.0361328e+00   2.0458984e+00   2.0458984e+00   2.0410156e+00   2.0312500e+00   2.0117188e+00   1.9921875e+00   1.9677734e+00   1.9384766e+00   1.9042969e+00   1.8603516e+00   1.8164062e+00   1.7724609e+00   1.7236328e+00   1.6845703e+00   1.6552734e+00   1.6308594e+00   1.6064453e+00   1.5820312e+00   1.5673828e+00   1.5478516e+00   1.5380859e+00   1.5332031e+00   1.5185547e+00   1.4941406e+00   1.4794922e+00   1.4599609e+00   1.4453125e+00   1.4404297e+00   1.4404297e+00   1.4404297e+00   1.4355469e+00   1.4257812e+00   1.4160156e+00   1.4111328e+00   1.4013672e+00   1.3720703e+00   1.3476562e+00   1.3232422e+00   1.2988281e+00   1.2744141e+00   1.2451172e+00   1.2255859e+00   1.1962891e+00   1.1718750e+00   1.1523438e+00   1.1328125e+00   1.1181641e+00   1.1035156e+00   1.0888672e+00   1.0839844e+00   1.0742188e+00   1.0644531e+00   1.0595703e+00   1.0449219e+00   1.0400391e+00   1.0302734e+00   1.0253906e+00   1.0205078e+00   1.0156250e+00   1.0107422e+00   1.0058594e+00   1.0058594e+00   1.0156250e+00   1.0449219e+00   1.0888672e+00   1.1621094e+00   1.2451172e+00   1.3525391e+00   1.4550781e+00   1.5625000e+00   1.6503906e+00   1.7480469e+00   1.8310547e+00   1.9042969e+00   1.9628906e+00   2.0166016e+00   2.0556641e+00   2.0898438e+00   2.1093750e+00   2.1240234e+00   2.1289062e+00   2.1240234e+00   2.1142578e+00   2.0996094e+00   2.0751953e+00   2.0458984e+00   2.0068359e+00   1.9726562e+00   1.9238281e+00   1.8750000e+00   1.8261719e+00   1.7822266e+00   1.7382812e+00   1.6992188e+00   1.6650391e+00   1.6357422e+00   1.6113281e+00   1.5917969e+00   1.5722656e+00   1.5625000e+00   1.5527344e+00   1.5478516e+00   1.5478516e+00   1.5478516e+00   1.5429688e+00   1.5429688e+00   1.5380859e+00   1.5332031e+00   1.5283203e+00   1.5136719e+00   1.4941406e+00   1.4794922e+00   1.4599609e+00   1.4306641e+00   1.4062500e+00   1.3818359e+00   1.3574219e+00   1.3378906e+00   1.3183594e+00   1.3037109e+00   1.2890625e+00   1.2744141e+00   1.2695312e+00   1.2646484e+00   1.2548828e+00   1.2548828e+00   1.2451172e+00   1.2402344e+00   1.2304688e+00   1.2255859e+00   1.2109375e+00   1.2011719e+00   1.1816406e+00   1.1669922e+00   1.1572266e+00   1.1376953e+00   1.1181641e+00   1.1181641e+00   1.1328125e+00   1.1767578e+00   1.2353516e+00   1.3134766e+00   1.3916016e+00   1.4794922e+00   1.5625000e+00   1.6357422e+00   1.6992188e+00   1.7578125e+00   1.8066406e+00   1.8603516e+00   1.8994141e+00   1.9189453e+00   1.9433594e+00   1.9531250e+00   1.9628906e+00   1.9628906e+00   1.9531250e+00   1.9384766e+00   1.9238281e+00   1.9042969e+00   1.8750000e+00   1.8457031e+00   1.8066406e+00   1.7724609e+00   1.7333984e+00   1.6894531e+00   1.6406250e+00   1.6015625e+00   1.5722656e+00   1.5429688e+00   1.5185547e+00   1.5039062e+00   1.4892578e+00   1.4843750e+00   1.4843750e+00   1.4794922e+00   1.4843750e+00   1.4843750e+00   1.4843750e+00   1.4843750e+00   1.4892578e+00   1.4843750e+00   1.4843750e+00   1.4746094e+00   1.4746094e+00   1.4697266e+00   1.4648438e+00   1.4550781e+00   1.4404297e+00   1.4355469e+00   1.4208984e+00   1.4062500e+00   1.3964844e+00   1.3867188e+00   1.3720703e+00   1.3623047e+00   1.3476562e+00   1.3378906e+00   1.3232422e+00   1.3085938e+00   1.2939453e+00   1.2744141e+00   1.2646484e+00   1.2451172e+00   1.2353516e+00   1.2353516e+00   1.2548828e+00   1.2988281e+00   1.3574219e+00   1.4404297e+00   1.5136719e+00   1.6015625e+00   1.6796875e+00   1.7529297e+00   1.8115234e+00   1.8701172e+00   1.9140625e+00   1.9433594e+00   1.9726562e+00   1.9873047e+00   1.9970703e+00   2.0019531e+00   1.9970703e+00   1.9873047e+00   1.9726562e+00   1.9580078e+00   1.9335938e+00   1.9091797e+00   1.8798828e+00   1.8408203e+00   1.8066406e+00   1.7773438e+00   1.7333984e+00   1.6943359e+00   1.6699219e+00   1.6503906e+00   1.6259766e+00   1.6113281e+00   1.5917969e+00   1.5722656e+00   1.5625000e+00   1.5527344e+00   1.5478516e+00   1.5380859e+00   1.5332031e+00   1.5234375e+00   1.5185547e+00   1.5039062e+00   1.4941406e+00   1.4941406e+00   1.4794922e+00   1.4599609e+00   1.4404297e+00   1.4208984e+00   1.3964844e+00   1.3720703e+00   1.3476562e+00   1.3281250e+00   1.3037109e+00   1.2792969e+00   1.2597656e+00   1.2402344e+00   1.2158203e+00   1.1962891e+00   1.1767578e+00   1.1523438e+00   1.1425781e+00   1.1230469e+00   1.1083984e+00   1.0986328e+00   1.0937500e+00   1.0888672e+00   1.0791016e+00   1.0742188e+00   1.0839844e+00   1.1132812e+00   1.1621094e+00   1.2353516e+00   1.3134766e+00   1.4111328e+00   1.4990234e+00   1.5917969e+00   1.6748047e+00   1.7529297e+00   1.8212891e+00   1.8896484e+00   1.9482422e+00   1.9873047e+00   2.0214844e+00   2.0507812e+00   2.0654297e+00   2.0800781e+00   2.0800781e+00   2.0800781e+00   2.0703125e+00   2.0507812e+00   2.0312500e+00   2.0068359e+00   1.9775391e+00   1.9482422e+00   1.9091797e+00   1.8701172e+00   1.8310547e+00   1.7871094e+00   1.7480469e+00   1.7041016e+00   1.6552734e+00   1.6162109e+00   1.5820312e+00   1.5527344e+00   1.5332031e+00   1.5185547e+00   1.5087891e+00   1.4990234e+00   1.4990234e+00   1.4892578e+00   1.4892578e+00   1.4941406e+00   1.4941406e+00   1.4941406e+00   1.4892578e+00   1.4843750e+00   1.4843750e+00   1.4746094e+00   1.4648438e+00   1.4501953e+00   1.4404297e+00   1.4306641e+00   1.4208984e+00   1.4111328e+00   1.3964844e+00   1.3867188e+00   1.3671875e+00   1.3525391e+00   1.3330078e+00   1.3085938e+00   1.2939453e+00   1.2744141e+00   1.2451172e+00   1.2158203e+00   1.1865234e+00   1.1621094e+00   1.1376953e+00   1.1083984e+00   1.0937500e+00   1.0888672e+00   1.1035156e+00   1.1523438e+00   1.2207031e+00   1.2988281e+00   1.3867188e+00   1.4794922e+00   1.5673828e+00   1.6503906e+00   1.7285156e+00   1.7822266e+00   1.8408203e+00   1.8847656e+00   1.9189453e+00   1.9433594e+00   1.9628906e+00   1.9726562e+00   1.9775391e+00   1.9775391e+00   1.9677734e+00   1.9580078e+00   1.9433594e+00   1.9189453e+00   1.8896484e+00   1.8505859e+00   1.8115234e+00   1.7675781e+00   1.7285156e+00   1.6845703e+00   1.6455078e+00   1.6113281e+00   1.5771484e+00   1.5478516e+00   1.5234375e+00   1.4990234e+00   1.4843750e+00   1.4697266e+00   1.4550781e+00   1.4453125e+00   1.4355469e+00   1.4257812e+00   1.4160156e+00   1.4111328e+00   1.3964844e+00   1.3867188e+00   1.3769531e+00   1.3720703e+00   1.3574219e+00   1.3476562e+00   1.3330078e+00   1.3232422e+00   1.3085938e+00   1.2939453e+00   1.2792969e+00   1.2646484e+00   1.2451172e+00   1.2402344e+00   1.2255859e+00   1.2158203e+00   1.2060547e+00   1.1914062e+00   1.1865234e+00   1.1767578e+00   1.1669922e+00   1.1669922e+00   1.1572266e+00   1.1474609e+00   1.1425781e+00   1.1376953e+00   1.1328125e+00   1.1328125e+00   1.1425781e+00   1.1718750e+00   1.2304688e+00   1.3085938e+00   1.4013672e+00   1.4990234e+00   1.5966797e+00   1.6943359e+00   1.7871094e+00   1.8652344e+00   1.9287109e+00   1.9775391e+00   2.0214844e+00   2.0507812e+00   2.0654297e+00   2.0751953e+00   2.0800781e+00   2.0703125e+00   2.0605469e+00   2.0458984e+00   2.0263672e+00   2.0019531e+00   1.9726562e+00   1.9384766e+00   1.9042969e+00   1.8652344e+00   1.8115234e+00   1.7626953e+00   1.7138672e+00   1.6650391e+00   1.6259766e+00   1.5917969e+00   1.5673828e+00   1.5429688e+00   1.5234375e+00   1.5039062e+00   1.4941406e+00   1.4843750e+00   1.4746094e+00   1.4697266e+00   1.4550781e+00   1.4501953e+00   1.4404297e+00   1.4355469e+00   1.4257812e+00   1.4208984e+00   1.4111328e+00   1.4013672e+00   1.3916016e+00   1.3818359e+00   1.3720703e+00   1.3574219e+00   1.3427734e+00   1.3330078e+00   1.3183594e+00   1.3037109e+00   1.2890625e+00   1.2744141e+00   1.2646484e+00   1.2451172e+00   1.2402344e+00   1.2255859e+00   1.2158203e+00   1.2109375e+00   1.2060547e+00   1.1962891e+00   1.1962891e+00   1.1914062e+00   1.2011719e+00   1.2255859e+00   1.2744141e+00   1.3427734e+00   1.4257812e+00   1.5185547e+00   1.6113281e+00   1.6894531e+00   1.7724609e+00   1.8457031e+00   1.9091797e+00   1.9580078e+00   2.0019531e+00   2.0361328e+00   2.0605469e+00   2.0703125e+00   2.0800781e+00   2.0800781e+00   2.0800781e+00   2.0703125e+00   2.0556641e+00   2.0312500e+00   2.0068359e+00   1.9775391e+00   1.9482422e+00   1.9091797e+00   1.8652344e+00   1.8261719e+00   1.7871094e+00   1.7480469e+00   1.7089844e+00   1.6748047e+00   1.6455078e+00   1.6210938e+00   1.5966797e+00   1.5771484e+00   1.5673828e+00   1.5576172e+00   1.5429688e+00   1.5380859e+00   1.5283203e+00   1.5234375e+00   1.5136719e+00   1.5087891e+00   1.5039062e+00   1.4990234e+00   1.4941406e+00   1.4843750e+00   1.4746094e+00   1.4648438e+00   1.4501953e+00   1.4355469e+00   1.4306641e+00   1.4160156e+00   1.4013672e+00   1.3916016e+00   1.3720703e+00   1.3623047e+00   1.3525391e+00   1.3378906e+00   1.3281250e+00   1.3134766e+00   1.2988281e+00   1.2890625e+00   1.2792969e+00   1.2646484e+00   1.2548828e+00   1.2451172e+00   1.2353516e+00   1.2255859e+00   1.2158203e+00   1.2158203e+00   1.2353516e+00   1.2695312e+00   1.3330078e+00   1.4062500e+00   1.4941406e+00   1.5917969e+00   1.6845703e+00   1.7626953e+00   1.8408203e+00   1.9091797e+00   1.9677734e+00   2.0117188e+00   2.0507812e+00   2.0800781e+00   2.0947266e+00   2.1093750e+00   2.1093750e+00   2.0996094e+00   2.0898438e+00   2.0703125e+00   2.0507812e+00   2.0263672e+00   1.9970703e+00   1.9580078e+00   1.9189453e+00   1.8798828e+00   1.8261719e+00   1.7822266e+00   1.7382812e+00   1.6943359e+00   1.6455078e+00   1.6015625e+00   1.5625000e+00   1.5283203e+00   1.5039062e+00   1.4794922e+00   1.4648438e+00   1.4501953e+00   1.4355469e+00   1.4257812e+00   1.4208984e+00   1.4111328e+00   1.4013672e+00   1.3964844e+00   1.3916016e+00   1.3818359e+00   1.3769531e+00   1.3623047e+00   1.3574219e+00   1.3427734e+00   1.3378906e+00   1.3232422e+00   1.3085938e+00   1.2890625e+00   1.2792969e+00   1.2597656e+00   1.2500000e+00   1.2353516e+00   1.2255859e+00   1.2109375e+00   1.1914062e+00   1.1816406e+00   1.1767578e+00   1.1621094e+00   1.1572266e+00   1.1425781e+00   1.1376953e+00   1.1279297e+00   1.1181641e+00   1.1083984e+00   1.1035156e+00   1.0986328e+00   1.0937500e+00   1.0986328e+00   1.1181641e+00   1.1572266e+00   1.2255859e+00   1.3134766e+00   1.4062500e+00   1.4990234e+00   1.5917969e+00   1.6845703e+00   1.7675781e+00   1.8359375e+00   1.8945312e+00   1.9433594e+00   1.9775391e+00   2.0019531e+00   2.0166016e+00   2.0263672e+00   2.0312500e+00   2.0263672e+00   2.0166016e+00   2.0019531e+00   1.9775391e+00   1.9531250e+00   1.9238281e+00   1.8847656e+00   1.8457031e+00   1.7968750e+00   1.7529297e+00   1.7138672e+00   1.6748047e+00   1.6308594e+00   1.5966797e+00   1.5673828e+00   1.5380859e+00   1.5185547e+00   1.4990234e+00   1.4843750e+00   1.4697266e+00   1.4550781e+00   1.4501953e+00   1.4404297e+00   1.4306641e+00   1.4208984e+00   1.4111328e+00   1.3964844e+00   1.3867188e+00   1.3720703e+00   1.3525391e+00   1.3378906e+00   1.3183594e+00   1.2988281e+00   1.2695312e+00   1.2402344e+00   1.2207031e+00   1.1962891e+00   1.1718750e+00   1.1523438e+00   1.1376953e+00   1.1279297e+00   1.1230469e+00   1.1181641e+00   1.1181641e+00   1.1230469e+00   1.1328125e+00   1.1425781e+00   1.1474609e+00   1.1572266e+00   1.1718750e+00   1.1816406e+00   1.1914062e+00   1.1962891e+00   1.2011719e+00   1.2011719e+00   1.2109375e+00   1.2255859e+00   1.2402344e+00   1.2744141e+00   1.3281250e+00   1.3964844e+00   1.4746094e+00   1.5576172e+00   1.6357422e+00   1.7041016e+00   1.7626953e+00   1.8066406e+00   1.8505859e+00   1.8847656e+00   1.9042969e+00   1.9140625e+00   1.9140625e+00   1.9091797e+00   1.8994141e+00   1.8798828e+00   1.8505859e+00   1.8164062e+00   1.7822266e+00   1.7382812e+00   1.6943359e+00   1.6503906e+00   1.6113281e+00   1.5722656e+00   1.5332031e+00   1.5039062e+00   1.4746094e+00   1.4550781e+00   1.4355469e+00   1.4257812e+00   1.4160156e+00   1.4062500e+00   1.4013672e+00   1.3916016e+00   1.3916016e+00   1.3867188e+00   1.3818359e+00   1.3769531e+00   1.3720703e+00   1.3671875e+00   1.3671875e+00   1.3623047e+00   1.3623047e+00   1.3574219e+00   1.3525391e+00   1.3476562e+00   1.3476562e+00   1.3427734e+00   1.3378906e+00   1.3330078e+00   1.3281250e+00   1.3183594e+00   1.3183594e+00   1.3134766e+00   1.3037109e+00   1.2939453e+00   1.2890625e+00   1.2841797e+00   1.2744141e+00   1.2695312e+00   1.2646484e+00   1.2646484e+00   1.2597656e+00   1.2500000e+00   1.2500000e+00   1.2597656e+00   1.2939453e+00   1.3476562e+00   1.4208984e+00   1.5039062e+00   1.5869141e+00   1.6796875e+00   1.7578125e+00   1.8359375e+00   1.8945312e+00   1.9482422e+00   1.9970703e+00   2.0312500e+00   2.0507812e+00   2.0703125e+00   2.0800781e+00   2.0800781e+00   2.0751953e+00   2.0605469e+00   2.0410156e+00   2.0214844e+00   1.9970703e+00   1.9628906e+00   1.9238281e+00   1.8847656e+00   1.8359375e+00   1.7968750e+00   1.7529297e+00   1.7089844e+00   1.6699219e+00   1.6406250e+00   1.6064453e+00   1.5820312e+00   1.5673828e+00   1.5527344e+00   1.5380859e+00   1.5234375e+00   1.5185547e+00   1.5136719e+00   1.5087891e+00   1.5087891e+00   1.5087891e+00   1.4990234e+00   1.4941406e+00   1.4843750e+00   1.4794922e+00   1.4794922e+00   1.4794922e+00   1.4794922e+00   1.4746094e+00   1.4697266e+00   1.4648438e+00   1.4550781e+00   1.4453125e+00   1.4306641e+00   1.4208984e+00   1.4013672e+00   1.3769531e+00   1.3476562e+00   1.3183594e+00   1.3037109e+00   1.2890625e+00   1.2792969e+00   1.2695312e+00   1.2548828e+00   1.2402344e+00   1.2402344e+00   1.2695312e+00   1.3134766e+00   1.3916016e+00   1.4843750e+00   1.5722656e+00   1.6650391e+00   1.7480469e+00   1.8261719e+00   1.9189453e+00   1.9873047e+00   2.0410156e+00   2.0947266e+00   2.1289062e+00   2.1533203e+00   2.1679688e+00   2.1728516e+00   2.1679688e+00   2.1630859e+00   2.1484375e+00   2.1337891e+00   2.1093750e+00   2.0654297e+00   2.0214844e+00   1.9824219e+00   1.9335938e+00   1.8945312e+00   1.8457031e+00   1.8066406e+00   1.7626953e+00   1.7187500e+00   1.6796875e+00   1.6503906e+00   1.6210938e+00   1.5917969e+00   1.5625000e+00   1.5478516e+00   1.5234375e+00   1.5087891e+00   1.4892578e+00   1.4794922e+00   1.4648438e+00   1.4550781e+00   1.4404297e+00   1.4355469e+00   1.4257812e+00   1.4160156e+00   1.4013672e+00   1.3916016e+00   1.3818359e+00   1.3769531e+00   1.3623047e+00   1.3525391e+00   1.3427734e+00   1.3330078e+00   1.3183594e+00   1.3085938e+00   1.2988281e+00   1.2890625e+00   1.2744141e+00   1.2646484e+00   1.2548828e+00   1.2451172e+00   1.2304688e+00   1.2207031e+00   1.2109375e+00   1.2109375e+00   1.2207031e+00   1.2646484e+00   1.3232422e+00   1.3916016e+00   1.4794922e+00   1.5625000e+00   1.6455078e+00   1.7187500e+00   1.7919922e+00   1.8603516e+00   1.9140625e+00   1.9628906e+00   2.0019531e+00   2.0361328e+00   2.0556641e+00   2.0751953e+00   2.0800781e+00   2.0849609e+00   2.0849609e+00   2.0751953e+00   2.0654297e+00   2.0507812e+00   2.0312500e+00   2.0019531e+00   1.9628906e+00   1.9238281e+00   1.8847656e+00   1.8359375e+00   1.7919922e+00   1.7578125e+00   1.7187500e+00   1.6748047e+00   1.6455078e+00   1.6162109e+00   1.5869141e+00   1.5673828e+00   1.5429688e+00   1.5283203e+00   1.5185547e+00   1.5039062e+00   1.4941406e+00   1.4843750e+00   1.4794922e+00   1.4746094e+00   1.4648438e+00   1.4550781e+00   1.4501953e+00   1.4404297e+00   1.4306641e+00   1.4208984e+00   1.4111328e+00   1.4013672e+00   1.3916016e+00   1.3818359e+00   1.3671875e+00   1.3574219e+00   1.3378906e+00   1.3232422e+00   1.3085938e+00   1.2939453e+00   1.2841797e+00   1.2744141e+00   1.2646484e+00   1.2548828e+00   1.2451172e+00   1.2353516e+00   1.2255859e+00   1.2207031e+00   1.2158203e+00   1.2304688e+00   1.2695312e+00   1.3232422e+00   1.3964844e+00   1.4843750e+00   1.5673828e+00   1.6552734e+00   1.7333984e+00   1.8066406e+00   1.8652344e+00   1.9140625e+00   1.9580078e+00   1.9921875e+00   2.0166016e+00   2.0361328e+00   2.0458984e+00   2.0507812e+00   2.0507812e+00   2.0410156e+00   2.0263672e+00   2.0068359e+00   1.9824219e+00   1.9580078e+00   1.9238281e+00   1.8847656e+00   1.8408203e+00   1.7968750e+00   1.7529297e+00   1.7187500e+00   1.6796875e+00   1.6455078e+00   1.6162109e+00   1.5917969e+00   1.5722656e+00   1.5527344e+00   1.5332031e+00   1.5234375e+00   1.5136719e+00   1.5039062e+00   1.4990234e+00   1.4941406e+00   1.4892578e+00   1.4843750e+00   1.4794922e+00   1.4697266e+00   1.4648438e+00   1.4501953e+00   1.4404297e+00   1.4306641e+00   1.4257812e+00   1.4160156e+00   1.4013672e+00   1.3916016e+00   1.3769531e+00   1.3720703e+00   1.3671875e+00   1.3671875e+00   1.3574219e+00   1.3476562e+00   1.3378906e+00   1.3281250e+00   1.3183594e+00   1.3085938e+00   1.2939453e+00   1.2792969e+00   1.2695312e+00   1.2597656e+00   1.2548828e+00   1.2500000e+00   1.2500000e+00   1.2744141e+00   1.3085938e+00   1.3720703e+00   1.4501953e+00   1.5136719e+00   1.6015625e+00   1.6845703e+00   1.7626953e+00   1.8310547e+00   1.8847656e+00   1.9335938e+00   1.9775391e+00   2.0068359e+00   2.0263672e+00   2.0361328e+00   2.0410156e+00   2.0410156e+00   2.0361328e+00   2.0263672e+00   2.0068359e+00   1.9775391e+00   1.9433594e+00   1.9091797e+00   1.8652344e+00   1.8261719e+00   1.7822266e+00   1.7382812e+00   1.6943359e+00   1.6503906e+00   1.6162109e+00   1.5820312e+00   1.5527344e+00   1.5283203e+00   1.5136719e+00   1.4990234e+00   1.4843750e+00   1.4746094e+00   1.4599609e+00   1.4501953e+00   1.4404297e+00   1.4306641e+00   1.4208984e+00   1.4111328e+00   1.4062500e+00   1.3964844e+00   1.3818359e+00   1.3769531e+00   1.3671875e+00   1.3623047e+00   1.3525391e+00   1.3427734e+00   1.3427734e+00   1.3281250e+00   1.3183594e+00   1.3134766e+00   1.3037109e+00   1.2988281e+00   1.2939453e+00   1.2890625e+00   1.2841797e+00   1.2792969e+00   1.2744141e+00   1.2597656e+00   1.2451172e+00   1.2304688e+00   1.2109375e+00   1.1914062e+00   1.1718750e+00   1.1621094e+00   1.1425781e+00   1.1328125e+00   1.1474609e+00   1.1718750e+00   1.2304688e+00   1.3037109e+00   1.3867188e+00   1.4746094e+00   1.5527344e+00   1.6357422e+00   1.7089844e+00   1.7724609e+00   1.8310547e+00   1.8798828e+00   1.9189453e+00   1.9531250e+00   1.9726562e+00   1.9970703e+00   2.0068359e+00   2.0166016e+00   2.0166016e+00   2.0166016e+00   2.0117188e+00   1.9970703e+00   1.9824219e+00   1.9677734e+00   1.9433594e+00   1.9140625e+00   1.8798828e+00   1.8505859e+00   1.8115234e+00   1.7724609e+00   1.7333984e+00   1.7041016e+00   1.6699219e+00   1.6406250e+00   1.6210938e+00   1.5966797e+00   1.5771484e+00   1.5625000e+00   1.5527344e+00   1.5380859e+00   1.5283203e+00   1.5185547e+00   1.5039062e+00   1.4941406e+00   1.4843750e+00   1.4648438e+00   1.4453125e+00   1.4257812e+00   1.4062500e+00   1.3867188e+00   1.3623047e+00   1.3476562e+00   1.3330078e+00   1.3183594e+00   1.2988281e+00   1.2792969e+00   1.2597656e+00   1.2402344e+00   1.2255859e+00   1.2109375e+00   1.2011719e+00   1.1914062e+00   1.1816406e+00   1.1718750e+00   1.1669922e+00   1.1621094e+00   1.1621094e+00   1.1572266e+00   1.1523438e+00   1.1523438e+00   1.1474609e+00   1.1425781e+00   1.1328125e+00   1.1279297e+00   1.1181641e+00   1.1132812e+00   1.1132812e+00   1.1279297e+00   1.1572266e+00   1.2109375e+00   1.2841797e+00   1.3720703e+00   1.4599609e+00   1.5527344e+00   1.6357422e+00   1.7138672e+00   1.7919922e+00   1.8554688e+00   1.9140625e+00   1.9580078e+00   1.9970703e+00   2.0214844e+00   2.0458984e+00   2.0605469e+00   2.0703125e+00   2.0703125e+00   2.0654297e+00   2.0507812e+00   2.0361328e+00   2.0214844e+00   1.9970703e+00   1.9677734e+00   1.9335938e+00   1.9042969e+00   1.8652344e+00   1.8212891e+00   1.7871094e+00   1.7529297e+00   1.7236328e+00   1.6943359e+00   1.6650391e+00   1.6455078e+00   1.6308594e+00   1.6113281e+00   1.5966797e+00   1.5869141e+00   1.5771484e+00   1.5673828e+00   1.5576172e+00   1.5429688e+00   1.5283203e+00   1.5136719e+00   1.4941406e+00   1.4843750e+00   1.4697266e+00   1.4501953e+00   1.4355469e+00   1.4208984e+00   1.4062500e+00   1.3916016e+00   1.3769531e+00   1.3623047e+00   1.3476562e+00   1.3330078e+00   1.3183594e+00   1.2988281e+00   1.2841797e+00   1.2695312e+00   1.2500000e+00   1.2353516e+00   1.2207031e+00   1.2060547e+00   1.1914062e+00   1.1767578e+00   1.1669922e+00   1.1523438e+00   1.1425781e+00   1.1279297e+00   1.1230469e+00   1.1132812e+00   1.1035156e+00   1.0986328e+00   1.0937500e+00   1.0888672e+00   1.0839844e+00   1.0888672e+00   1.0937500e+00   1.1083984e+00   1.1474609e+00   1.2011719e+00   1.2841797e+00   1.3769531e+00   1.4746094e+00   1.5625000e+00   1.6455078e+00   1.7285156e+00   1.8017578e+00   1.8603516e+00   1.9189453e+00   1.9628906e+00   1.9970703e+00   2.0263672e+00   2.0410156e+00   2.0556641e+00   2.0556641e+00   2.0507812e+00   2.0410156e+00   2.0263672e+00   2.0068359e+00   1.9824219e+00   1.9580078e+00   1.9238281e+00   1.8847656e+00   1.8408203e+00   1.8017578e+00   1.7578125e+00   1.7187500e+00   1.6845703e+00   1.6552734e+00   1.6259766e+00   1.6015625e+00   1.5771484e+00   1.5576172e+00   1.5478516e+00   1.5332031e+00   1.5234375e+00   1.5136719e+00   1.5087891e+00   1.4990234e+00   1.4941406e+00   1.4941406e+00   1.4892578e+00   1.4941406e+00   1.4892578e+00   1.4794922e+00   1.4648438e+00   1.4550781e+00   1.4404297e+00   1.4306641e+00   1.4062500e+00   1.3964844e+00   1.3818359e+00   1.3623047e+00   1.3427734e+00   1.3183594e+00   1.2890625e+00   1.2646484e+00   1.2500000e+00   1.2451172e+00   1.2255859e+00   1.2158203e+00   1.2011719e+00   1.1962891e+00   1.1865234e+00   1.1816406e+00   1.1767578e+00   1.1669922e+00   1.1669922e+00   1.1572266e+00   1.1474609e+00   1.1376953e+00   1.1376953e+00   1.1523438e+00   1.1914062e+00   1.2500000e+00   1.3183594e+00   1.4013672e+00   1.4843750e+00   1.5673828e+00   1.6455078e+00   1.7138672e+00   1.7675781e+00   1.8115234e+00   1.8505859e+00   1.8750000e+00   1.8945312e+00   1.9042969e+00   1.9140625e+00   1.9140625e+00   1.9042969e+00   1.8945312e+00   1.8798828e+00   1.8603516e+00   1.8310547e+00   1.7968750e+00   1.7578125e+00   1.7187500e+00   1.6845703e+00   1.6455078e+00   1.6113281e+00   1.5771484e+00   1.5527344e+00   1.5234375e+00   1.4990234e+00   1.4843750e+00   1.4697266e+00   1.4599609e+00   1.4501953e+00   1.4453125e+00   1.4404297e+00   1.4355469e+00   1.4306641e+00   1.4208984e+00   1.4111328e+00   1.4013672e+00   1.3916016e+00   1.3818359e+00   1.3720703e+00   1.3623047e+00   1.3525391e+00   1.3427734e+00   1.3330078e+00   1.3232422e+00   1.3134766e+00   1.3037109e+00   1.2841797e+00   1.2841797e+00   1.2695312e+00   1.2597656e+00   1.2548828e+00   1.2500000e+00   1.2402344e+00   1.2353516e+00   1.2255859e+00   1.2158203e+00   1.2109375e+00   1.1962891e+00   1.1914062e+00   1.1865234e+00   1.1767578e+00   1.1669922e+00   1.1621094e+00   1.1572266e+00   1.1621094e+00   1.1816406e+00   1.2207031e+00   1.2939453e+00   1.3671875e+00   1.4599609e+00   1.5576172e+00   1.6455078e+00   1.7333984e+00   1.8066406e+00   1.8750000e+00   1.9335938e+00   1.9873047e+00   2.0214844e+00   2.0556641e+00   2.0800781e+00   2.0947266e+00   2.1044922e+00   2.1093750e+00   2.1044922e+00   2.0996094e+00   2.0898438e+00   2.0751953e+00   2.0556641e+00   2.0263672e+00   1.9970703e+00   1.9628906e+00   1.9189453e+00   1.8701172e+00   1.8261719e+00   1.7871094e+00   1.7431641e+00   1.7041016e+00   1.6650391e+00   1.6357422e+00   1.6064453e+00   1.5820312e+00   1.5625000e+00   1.5380859e+00   1.5234375e+00   1.5087891e+00   1.4990234e+00   1.4843750e+00   1.4697266e+00   1.4550781e+00   1.4404297e+00   1.4306641e+00   1.4160156e+00   1.4013672e+00   1.3867188e+00   1.3720703e+00   1.3623047e+00   1.3427734e+00   1.3281250e+00   1.3085938e+00   1.2890625e+00   1.2744141e+00   1.2597656e+00   1.2451172e+00   1.2255859e+00   1.2109375e+00   1.1962891e+00   1.1865234e+00   1.1767578e+00   1.1621094e+00   1.1572266e+00   1.1474609e+00   1.1425781e+00   1.1376953e+00   1.1328125e+00   1.1328125e+00   1.1230469e+00   1.1230469e+00   1.1181641e+00   1.1083984e+00   1.1035156e+00   1.1035156e+00   1.1083984e+00   1.1328125e+00   1.1865234e+00   1.2548828e+00   1.3330078e+00   1.4355469e+00   1.5283203e+00   1.6210938e+00   1.6992188e+00   1.7822266e+00   1.8554688e+00   1.9140625e+00   1.9677734e+00   2.0068359e+00   2.0410156e+00   2.0605469e+00   2.0751953e+00   2.0800781e+00   2.0849609e+00   2.0751953e+00   2.0654297e+00   2.0507812e+00   2.0361328e+00   2.0117188e+00   1.9775391e+00   1.9482422e+00   1.9091797e+00   1.8701172e+00   1.8212891e+00   1.7822266e+00   1.7431641e+00   1.7041016e+00   1.6650391e+00   1.6308594e+00   1.6015625e+00   1.5771484e+00   1.5527344e+00   1.5332031e+00   1.5185547e+00   1.5039062e+00   1.4892578e+00   1.4794922e+00   1.4697266e+00   1.4599609e+00   1.4501953e+00   1.4355469e+00   1.4257812e+00   1.4111328e+00   1.4013672e+00   1.3916016e+00   1.3769531e+00   1.3574219e+00   1.3427734e+00   1.3281250e+00   1.3183594e+00   1.2988281e+00   1.2890625e+00   1.2744141e+00   1.2548828e+00   1.2402344e+00   1.2255859e+00   1.2109375e+00   1.1962891e+00   1.1914062e+00   1.1962891e+00   1.1865234e+00   1.1816406e+00   1.1621094e+00   1.1474609e+00   1.1425781e+00   1.1474609e+00   1.1474609e+00   1.1376953e+00   1.1376953e+00   1.1376953e+00   1.1425781e+00   1.1376953e+00   1.1376953e+00   1.1376953e+00   1.1279297e+00   1.1279297e+00   1.1425781e+00   1.1621094e+00   1.2060547e+00   1.2744141e+00   1.3476562e+00   1.4404297e+00   1.5332031e+00   1.6162109e+00   1.7041016e+00   1.7871094e+00   1.8603516e+00   1.9091797e+00   1.9433594e+00   1.9726562e+00   1.9921875e+00   2.0068359e+00   2.0166016e+00   2.0166016e+00   2.0117188e+00   2.0019531e+00   1.9921875e+00   1.9824219e+00   1.9628906e+00   1.9384766e+00   1.9042969e+00   1.8750000e+00   1.8359375e+00   1.7919922e+00   1.7529297e+00   1.7187500e+00   1.6845703e+00   1.6455078e+00   1.6113281e+00   1.5771484e+00   1.5527344e+00   1.5283203e+00   1.5087891e+00   1.4892578e+00   1.4794922e+00   1.4648438e+00   1.4550781e+00   1.4453125e+00   1.4404297e+00   1.4306641e+00   1.4257812e+00   1.4208984e+00   1.4160156e+00   1.4111328e+00   1.4013672e+00   1.3867188e+00   1.3818359e+00   1.3720703e+00   1.3574219e+00   1.3476562e+00   1.3330078e+00   1.3232422e+00   1.3037109e+00   1.2841797e+00   1.2646484e+00   1.2548828e+00   1.2353516e+00   1.2207031e+00   1.2060547e+00   1.1914062e+00   1.1767578e+00   1.1718750e+00   1.1572266e+00   1.1523438e+00   1.1425781e+00   1.1279297e+00   1.1181641e+00   1.1230469e+00   1.1230469e+00   1.1181641e+00   1.1132812e+00   1.1230469e+00   1.1279297e+00   1.1328125e+00   1.1425781e+00   1.1523438e+00   1.1816406e+00   1.2402344e+00   1.3330078e+00   1.4355469e+00   1.5478516e+00   1.6455078e+00   1.7382812e+00   1.8164062e+00   1.8847656e+00   1.9287109e+00   1.9677734e+00   2.0019531e+00   2.0214844e+00   2.0312500e+00   2.0312500e+00   2.0312500e+00   2.0263672e+00   2.0117188e+00   1.9970703e+00   1.9726562e+00   1.9482422e+00   1.9238281e+00   1.8896484e+00   1.8505859e+00   1.8066406e+00   1.7626953e+00   1.7236328e+00   1.6845703e+00   1.6455078e+00   1.6113281e+00   1.5869141e+00   1.5576172e+00   1.5380859e+00   1.5185547e+00   1.5087891e+00   1.4990234e+00   1.4843750e+00   1.4794922e+00   1.4697266e+00   1.4599609e+00   1.4550781e+00   1.4501953e+00   1.4453125e+00   1.4404297e+00   1.4355469e+00   1.4306641e+00   1.4208984e+00   1.4160156e+00   1.4062500e+00   1.4013672e+00   1.3867188e+00   1.3818359e+00   1.3720703e+00   1.3623047e+00   1.3525391e+00   1.3476562e+00   1.3330078e+00   1.3232422e+00   1.3183594e+00   1.3085938e+00   1.3085938e+00   1.3134766e+00   1.3134766e+00   1.3085938e+00   1.3037109e+00   1.2939453e+00   1.2890625e+00   1.2695312e+00   1.2646484e+00   1.2646484e+00   1.2695312e+00   1.2988281e+00   1.3427734e+00   1.4160156e+00   1.5087891e+00   1.6015625e+00   1.6894531e+00   1.7626953e+00   1.8310547e+00   1.9042969e+00   1.9531250e+00   1.9921875e+00   2.0166016e+00   2.0361328e+00   2.0507812e+00   2.0507812e+00   2.0507812e+00   2.0410156e+00   2.0214844e+00   2.0019531e+00   1.9775391e+00   1.9482422e+00   1.9140625e+00   1.8701172e+00   1.8310547e+00   1.7871094e+00   1.7382812e+00   1.6894531e+00   1.6503906e+00   1.6113281e+00   1.5722656e+00   1.5478516e+00   1.5234375e+00   1.5039062e+00   1.4941406e+00   1.4794922e+00   1.4697266e+00   1.4648438e+00   1.4599609e+00   1.4550781e+00   1.4453125e+00   1.4404297e+00   1.4306641e+00   1.4208984e+00   1.4160156e+00   1.4062500e+00   1.3964844e+00   1.3818359e+00   1.3769531e+00   1.3623047e+00   1.3525391e+00   1.3378906e+00   1.3232422e+00   1.3037109e+00   1.2939453e+00   1.2841797e+00   1.2695312e+00   1.2744141e+00   1.2695312e+00   1.2646484e+00   1.2597656e+00   1.2402344e+00   1.2255859e+00   1.2060547e+00   1.2060547e+00   1.1962891e+00   1.1816406e+00   1.1621094e+00   1.1474609e+00   1.1621094e+00   1.1865234e+00   1.2304688e+00   1.3037109e+00   1.3916016e+00   1.4941406e+00   1.5771484e+00   1.6601562e+00   1.7382812e+00   1.8164062e+00   1.8701172e+00   1.9287109e+00   1.9775391e+00   2.0166016e+00   2.0361328e+00   2.0703125e+00   2.0996094e+00   2.1191406e+00   2.1289062e+00   2.1240234e+00   2.1240234e+00   2.1044922e+00   2.0800781e+00   2.0507812e+00   2.0166016e+00   1.9775391e+00   1.9335938e+00   1.8994141e+00   1.8652344e+00   1.8261719e+00   1.7919922e+00   1.7480469e+00   1.7138672e+00   1.6748047e+00   1.6455078e+00   1.6259766e+00   1.6015625e+00   1.5869141e+00   1.5673828e+00   1.5478516e+00   1.5283203e+00   1.5039062e+00   1.4892578e+00   1.4697266e+00   1.4599609e+00   1.4453125e+00   1.4306641e+00   1.4111328e+00   1.3964844e+00   1.3818359e+00   1.3671875e+00   1.3525391e+00   1.3378906e+00   1.3183594e+00   1.3037109e+00   1.2841797e+00   1.2695312e+00   1.2597656e+00   1.2500000e+00   1.2402344e+00   1.2255859e+00   1.2158203e+00   1.1962891e+00   1.1865234e+00   1.1718750e+00   1.1669922e+00   1.1523438e+00   1.1425781e+00   1.1328125e+00   1.1230469e+00   1.1132812e+00   1.1181641e+00   1.1376953e+00   1.1767578e+00   1.2402344e+00   1.3232422e+00   1.4208984e+00   1.5136719e+00   1.5966797e+00   1.6845703e+00   1.7626953e+00   1.8310547e+00   1.8896484e+00   1.9384766e+00   1.9824219e+00   2.0166016e+00   2.0410156e+00   2.0605469e+00   2.0703125e+00   2.0751953e+00   2.0751953e+00   2.0703125e+00   2.0556641e+00   2.0361328e+00   2.0166016e+00   1.9970703e+00   1.9628906e+00   1.9287109e+00   1.8847656e+00   1.8457031e+00   1.8017578e+00   1.7578125e+00   1.7089844e+00   1.6650391e+00   1.6259766e+00   1.5917969e+00   1.5625000e+00   1.5380859e+00   1.5136719e+00   1.4941406e+00   1.4843750e+00   1.4697266e+00   1.4599609e+00   1.4501953e+00   1.4355469e+00   1.4257812e+00   1.4208984e+00   1.4111328e+00   1.4013672e+00   1.4013672e+00   1.4013672e+00   1.3964844e+00   1.3916016e+00   1.3818359e+00   1.3671875e+00   1.3623047e+00   1.3476562e+00   1.3330078e+00   1.3183594e+00   1.2988281e+00   1.2646484e+00   1.2402344e+00   1.2158203e+00   1.1914062e+00   1.1767578e+00   1.1669922e+00   1.1669922e+00   1.1621094e+00   1.1621094e+00   1.1425781e+00   1.1279297e+00   1.1181641e+00   1.1132812e+00   1.1035156e+00   1.0937500e+00   1.0888672e+00   1.0888672e+00   1.0937500e+00   1.1279297e+00   1.1865234e+00   1.2548828e+00   1.3476562e+00   1.4453125e+00   1.5478516e+00   1.6406250e+00   1.7236328e+00   1.7968750e+00   1.8603516e+00   1.9189453e+00   1.9580078e+00   1.9921875e+00   2.0214844e+00   2.0361328e+00   2.0458984e+00   2.0458984e+00   2.0458984e+00   2.0361328e+00   2.0214844e+00   2.0068359e+00   1.9824219e+00   1.9580078e+00   1.9189453e+00   1.8847656e+00   1.8359375e+00   1.7871094e+00   1.7431641e+00   1.6992188e+00   1.6552734e+00   1.6113281e+00   1.5722656e+00   1.5429688e+00   1.5136719e+00   1.4892578e+00   1.4697266e+00   1.4599609e+00   1.4453125e+00   1.4257812e+00   1.4208984e+00   1.4111328e+00   1.4111328e+00   1.4111328e+00   1.4062500e+00   1.4013672e+00   1.3964844e+00   1.3867188e+00   1.3818359e+00   1.3720703e+00   1.3671875e+00   1.3574219e+00   1.3427734e+00   1.3281250e+00   1.3232422e+00   1.3085938e+00   1.2988281e+00   1.2841797e+00   1.2695312e+00   1.2597656e+00   1.2402344e+00   1.2207031e+00   1.2109375e+00   1.1962891e+00   1.1914062e+00   1.1816406e+00   1.1767578e+00   1.1669922e+00   1.1669922e+00   1.1572266e+00   1.1523438e+00   1.1474609e+00   1.1474609e+00   1.1425781e+00   1.1425781e+00   1.1425781e+00   1.1376953e+00   1.1376953e+00   1.1376953e+00   1.1523438e+00   1.1767578e+00   1.2304688e+00   1.3037109e+00   1.3916016e+00   1.4794922e+00   1.5722656e+00   1.6601562e+00   1.7480469e+00   1.8115234e+00   1.8750000e+00   1.9287109e+00   1.9628906e+00   1.9921875e+00   2.0166016e+00   2.0312500e+00   2.0361328e+00   2.0361328e+00   2.0312500e+00   2.0166016e+00   1.9970703e+00   1.9775391e+00   1.9531250e+00   1.9189453e+00   1.8798828e+00   1.8408203e+00   1.8017578e+00   1.7578125e+00   1.7138672e+00   1.6796875e+00   1.6503906e+00   1.6308594e+00   1.6113281e+00   1.5966797e+00   1.5869141e+00   1.5722656e+00   1.5673828e+00   1.5576172e+00   1.5527344e+00   1.5527344e+00   1.5429688e+00   1.5332031e+00   1.5332031e+00   1.5332031e+00   1.5234375e+00   1.5185547e+00   1.5087891e+00   1.4941406e+00   1.4892578e+00   1.4697266e+00   1.4501953e+00   1.4257812e+00   1.4013672e+00   1.3818359e+00   1.3671875e+00   1.3476562e+00   1.3330078e+00   1.3134766e+00   1.2988281e+00   1.2792969e+00   1.2646484e+00   1.2500000e+00   1.2353516e+00   1.2255859e+00   1.2158203e+00   1.2060547e+00   1.1962891e+00   1.1962891e+00   1.1865234e+00   1.1767578e+00   1.1669922e+00   1.1572266e+00   1.1523438e+00   1.1523438e+00   1.1572266e+00   1.1865234e+00   1.2353516e+00   1.3085938e+00   1.3964844e+00   1.4892578e+00   1.5820312e+00   1.6699219e+00   1.7529297e+00   1.8212891e+00   1.8847656e+00   1.9433594e+00   1.9824219e+00   2.0361328e+00   2.0703125e+00   2.0947266e+00   2.1142578e+00   2.1191406e+00   2.1142578e+00   2.1044922e+00   2.0947266e+00   2.0800781e+00   2.0556641e+00   2.0361328e+00   1.9921875e+00   1.9433594e+00   1.8945312e+00   1.8652344e+00   1.8115234e+00   1.7724609e+00   1.7382812e+00   1.6943359e+00   1.6455078e+00   1.6113281e+00   1.5722656e+00   1.5429688e+00   1.5185547e+00   1.4990234e+00   1.4794922e+00   1.4599609e+00   1.4453125e+00   1.4355469e+00   1.4257812e+00   1.4160156e+00   1.4111328e+00   1.4062500e+00   1.3964844e+00   1.3867188e+00   1.3769531e+00   1.3671875e+00   1.3574219e+00   1.3476562e+00   1.3378906e+00   1.3232422e+00   1.3134766e+00   1.2988281e+00   1.2890625e+00   1.2695312e+00   1.2548828e+00   1.2451172e+00   1.2304688e+00   1.2158203e+00   1.2060547e+00   1.1914062e+00   1.1816406e+00   1.1718750e+00   1.1572266e+00   1.1474609e+00   1.1425781e+00   1.1279297e+00   1.1230469e+00   1.1083984e+00   1.1035156e+00   1.0937500e+00   1.0888672e+00   1.0839844e+00   1.0839844e+00   1.0986328e+00   1.1425781e+00   1.2109375e+00   1.2939453e+00   1.3964844e+00   1.4990234e+00   1.6015625e+00   1.6845703e+00   1.7724609e+00   1.8457031e+00   1.9091797e+00   1.9531250e+00   1.9970703e+00   2.0263672e+00   2.0458984e+00   2.0507812e+00   2.0556641e+00   2.0654297e+00   2.0703125e+00   2.0654297e+00   2.0605469e+00   2.0410156e+00   2.0166016e+00   1.9873047e+00   1.9482422e+00   1.9042969e+00   1.8652344e+00   1.8164062e+00   1.7773438e+00   1.7382812e+00   1.6992188e+00   1.6650391e+00   1.6406250e+00   1.6162109e+00   1.5820312e+00   1.5673828e+00   1.5429688e+00   1.5234375e+00   1.5039062e+00   1.4794922e+00   1.4648438e+00   1.4550781e+00   1.4453125e+00   1.4306641e+00   1.4208984e+00   1.4111328e+00   1.3964844e+00   1.3916016e+00   1.3818359e+00   1.3671875e+00   1.3525391e+00   1.3378906e+00   1.3281250e+00   1.3232422e+00   1.3281250e+00   1.3183594e+00   1.3085938e+00   1.3085938e+00   1.3037109e+00   1.2988281e+00   1.2939453e+00   1.2841797e+00   1.2744141e+00   1.2695312e+00   1.2451172e+00   1.2207031e+00   1.2011719e+00   1.1767578e+00   1.1669922e+00   1.1425781e+00   1.1328125e+00   1.1474609e+00   1.1767578e+00   1.2158203e+00   1.2841797e+00   1.3574219e+00   1.4501953e+00   1.5429688e+00   1.6308594e+00   1.7041016e+00   1.7871094e+00   1.8505859e+00   1.9091797e+00   1.9628906e+00   1.9970703e+00   2.0214844e+00   2.0458984e+00   2.0556641e+00   2.0654297e+00   2.0654297e+00   2.0605469e+00   2.0507812e+00   2.0410156e+00   2.0263672e+00   2.0019531e+00   1.9726562e+00   1.9384766e+00   1.8994141e+00   1.8554688e+00   1.8115234e+00   1.7675781e+00   1.7236328e+00   1.6845703e+00   1.6503906e+00   1.6113281e+00   1.5917969e+00   1.5625000e+00   1.5429688e+00   1.5283203e+00   1.5136719e+00   1.5039062e+00   1.4941406e+00   1.4892578e+00   1.4843750e+00   1.4794922e+00   1.4697266e+00   1.4648438e+00   1.4550781e+00   1.4501953e+00   1.4404297e+00   1.4355469e+00   1.4208984e+00   1.4111328e+00   1.3964844e+00   1.3818359e+00   1.3623047e+00   1.3525391e+00   1.3378906e+00   1.3183594e+00   1.3085938e+00   1.3037109e+00   1.2939453e+00   1.2792969e+00   1.2695312e+00   1.2548828e+00   1.2451172e+00   1.2304688e+00   1.2255859e+00   1.2158203e+00   1.2109375e+00   1.1962891e+00   1.2011719e+00   1.2011719e+00   1.1962891e+00   1.2011719e+00   1.2109375e+00   1.2402344e+00   1.2939453e+00   1.3671875e+00   1.4599609e+00   1.5576172e+00   1.6552734e+00   1.7480469e+00   1.8310547e+00   1.9091797e+00   1.9726562e+00   2.0214844e+00   2.0654297e+00   2.0947266e+00   2.1191406e+00   2.1386719e+00   2.1484375e+00   2.1533203e+00   2.1533203e+00   2.1484375e+00   2.1240234e+00   2.1044922e+00   2.0703125e+00   2.0361328e+00   2.0019531e+00   1.9628906e+00   1.9189453e+00   1.8701172e+00   1.8261719e+00   1.7773438e+00   1.7333984e+00   1.6943359e+00   1.6552734e+00   1.6210938e+00   1.5917969e+00   1.5576172e+00   1.5380859e+00   1.5185547e+00   1.5039062e+00   1.4892578e+00   1.4746094e+00   1.4599609e+00   1.4501953e+00   1.4404297e+00   1.4306641e+00   1.4208984e+00   1.4111328e+00   1.3964844e+00   1.3867188e+00   1.3720703e+00   1.3574219e+00   1.3427734e+00   1.3281250e+00   1.3183594e+00   1.3037109e+00   1.2890625e+00   1.2695312e+00   1.2548828e+00   1.2353516e+00   1.2207031e+00   1.2060547e+00   1.1914062e+00   1.1767578e+00   1.1621094e+00   1.1523438e+00   1.1376953e+00   1.1279297e+00   1.1181641e+00   1.1132812e+00   1.1035156e+00   1.0986328e+00   1.0888672e+00   1.0888672e+00   1.0888672e+00   1.0839844e+00   1.0937500e+00   1.0937500e+00   1.1083984e+00   1.1376953e+00   1.1767578e+00   1.2500000e+00   1.3427734e+00   1.4501953e+00   1.5429688e+00   1.6406250e+00   1.7333984e+00   1.8164062e+00   1.8798828e+00   1.9433594e+00   1.9970703e+00   2.0410156e+00   2.0751953e+00   2.0947266e+00   2.1093750e+00   2.1191406e+00   2.1191406e+00   2.1191406e+00   2.1044922e+00   2.0947266e+00   2.0703125e+00   2.0458984e+00   2.0214844e+00   1.9873047e+00   1.9531250e+00   1.9140625e+00   1.8701172e+00   1.8261719e+00   1.7822266e+00   1.7431641e+00   1.7041016e+00   1.6650391e+00   1.6357422e+00   1.6064453e+00   1.5917969e+00   1.5722656e+00   1.5576172e+00   1.5429688e+00   1.5283203e+00   1.5185547e+00   1.5087891e+00   1.4990234e+00   1.4892578e+00   1.4746094e+00   1.4648438e+00   1.4599609e+00   1.4453125e+00   1.4355469e+00   1.4257812e+00   1.4111328e+00   1.3964844e+00   1.3818359e+00   1.3671875e+00   1.3525391e+00   1.3330078e+00   1.3183594e+00   1.2988281e+00   1.2792969e+00   1.2597656e+00   1.2451172e+00   1.2255859e+00   1.2109375e+00   1.2011719e+00   1.1865234e+00   1.1767578e+00   1.1621094e+00   1.1474609e+00   1.1425781e+00   1.1328125e+00   1.1279297e+00   1.1230469e+00   1.1132812e+00   1.1083984e+00   1.1035156e+00   1.0986328e+00   1.0937500e+00   1.0888672e+00   1.0839844e+00   1.0791016e+00   1.0791016e+00   1.0986328e+00   1.1425781e+00   1.2158203e+00   1.2988281e+00   1.4013672e+00   1.4892578e+00   1.5869141e+00   1.6796875e+00   1.7578125e+00   1.8212891e+00   1.8798828e+00   1.9287109e+00   1.9726562e+00   1.9970703e+00   2.0214844e+00   2.0263672e+00   2.0312500e+00   2.0263672e+00   2.0214844e+00   2.0068359e+00   1.9921875e+00   1.9628906e+00   1.9335938e+00   1.8994141e+00   1.8603516e+00   1.8164062e+00   1.7822266e+00   1.7333984e+00   1.6894531e+00   1.6503906e+00   1.6162109e+00   1.5869141e+00   1.5576172e+00   1.5332031e+00   1.5185547e+00   1.4990234e+00   1.4892578e+00   1.4794922e+00   1.4746094e+00   1.4697266e+00   1.4648438e+00   1.4599609e+00   1.4501953e+00   1.4453125e+00   1.4404297e+00   1.4306641e+00   1.4208984e+00   1.4111328e+00   1.4013672e+00   1.3916016e+00   1.3769531e+00   1.3623047e+00   1.3525391e+00   1.3378906e+00   1.3232422e+00   1.3134766e+00   1.2988281e+00   1.2841797e+00   1.2695312e+00   1.2695312e+00   1.2695312e+00   1.2646484e+00   1.2548828e+00   1.2548828e+00   1.2500000e+00   1.2451172e+00   1.2255859e+00   1.2109375e+00   1.1914062e+00   1.1816406e+00   1.1718750e+00   1.1767578e+00   1.1816406e+00   1.1962891e+00   1.2255859e+00   1.2695312e+00   1.3330078e+00   1.4111328e+00   1.4990234e+00   1.5771484e+00   1.6552734e+00   1.7187500e+00   1.7822266e+00   1.8359375e+00   1.8847656e+00   1.9189453e+00   1.9482422e+00   1.9628906e+00   1.9726562e+00   1.9726562e+00   1.9726562e+00   1.9580078e+00   1.9433594e+00   1.9189453e+00   1.8945312e+00   1.8603516e+00   1.8212891e+00   1.7822266e+00   1.7480469e+00   1.7041016e+00   1.6650391e+00   1.6210938e+00   1.5869141e+00   1.5576172e+00   1.5332031e+00   1.5136719e+00   1.4941406e+00   1.4794922e+00   1.4697266e+00   1.4599609e+00   1.4501953e+00   1.4404297e+00   1.4355469e+00   1.4306641e+00   1.4257812e+00   1.4160156e+00   1.4111328e+00   1.4013672e+00   1.3964844e+00   1.3867188e+00   1.3818359e+00   1.3720703e+00   1.3623047e+00   1.3525391e+00   1.3378906e+00   1.3330078e+00   1.3183594e+00   1.3037109e+00   1.2939453e+00   1.2792969e+00   1.2695312e+00   1.2548828e+00   1.2451172e+00   1.2353516e+00   1.2255859e+00   1.2207031e+00   1.2109375e+00   1.2011719e+00   1.1914062e+00   1.1816406e+00   1.1718750e+00   1.1669922e+00   1.1669922e+00   1.1865234e+00   1.2353516e+00   1.2939453e+00   1.3769531e+00   1.4697266e+00   1.5625000e+00   1.6406250e+00   1.7236328e+00   1.8017578e+00   1.8652344e+00   1.9189453e+00   1.9580078e+00   1.9970703e+00   2.0214844e+00   2.0458984e+00   2.0605469e+00   2.0703125e+00   2.0703125e+00   2.0605469e+00   2.0507812e+00   2.0361328e+00   2.0117188e+00   1.9873047e+00   1.9628906e+00   1.9287109e+00   1.8847656e+00   1.8457031e+00   1.8066406e+00   1.7773438e+00   1.7431641e+00   1.7089844e+00   1.6796875e+00   1.6601562e+00   1.6357422e+00   1.6113281e+00   1.5966797e+00   1.5820312e+00   1.5673828e+00   1.5576172e+00   1.5478516e+00   1.5429688e+00   1.5380859e+00   1.5283203e+00   1.5234375e+00   1.5136719e+00   1.5039062e+00   1.4892578e+00   1.4746094e+00   1.4648438e+00   1.4550781e+00   1.4404297e+00   1.4208984e+00   1.4062500e+00   1.3964844e+00   1.3818359e+00   1.3720703e+00   1.3525391e+00   1.3476562e+00   1.3330078e+00   1.3183594e+00   1.3037109e+00   1.2890625e+00   1.2792969e+00   1.2646484e+00   1.2500000e+00   1.2402344e+00   1.2353516e+00   1.2255859e+00   1.2207031e+00   1.2207031e+00   1.2353516e+00   1.2695312e+00   1.3232422e+00   1.3964844e+00   1.4746094e+00   1.5576172e+00   1.6406250e+00   1.7187500e+00   1.7822266e+00   1.8505859e+00   1.9042969e+00   1.9531250e+00   1.9921875e+00   2.0214844e+00   2.0458984e+00   2.0605469e+00   2.0703125e+00   2.0703125e+00   2.0703125e+00   2.0654297e+00   2.0556641e+00   2.0507812e+00   2.0361328e+00   2.0263672e+00   2.0068359e+00   1.9873047e+00   1.9628906e+00   1.9384766e+00   1.9140625e+00   1.8945312e+00   1.8750000e+00   1.8554688e+00   1.8359375e+00   1.8164062e+00   1.8017578e+00   1.7871094e+00   1.7675781e+00   1.7529297e+00   1.7333984e+00   1.7089844e+00   1.6894531e+00   1.6699219e+00   1.6503906e+00   1.6357422e+00   1.6162109e+00   1.6064453e+00   1.5966797e+00   1.5917969e+00   1.5917969e+00   1.5869141e+00   1.5869141e+00   1.5869141e+00   1.5820312e+00   1.5722656e+00   1.5673828e+00   1.5625000e+00   1.5478516e+00   1.5283203e+00   1.5136719e+00   1.4941406e+00   1.4697266e+00   1.4453125e+00   1.4257812e+00   1.4013672e+00   1.3818359e+00   1.3574219e+00   1.3476562e+00   1.3330078e+00   1.3183594e+00   1.3085938e+00   1.3037109e+00   1.3183594e+00   1.3427734e+00   1.3916016e+00   1.4453125e+00   1.5185547e+00   1.5869141e+00   1.6552734e+00   1.7187500e+00   1.7773438e+00   1.8310547e+00   1.8750000e+00   1.9091797e+00   1.9384766e+00   1.9580078e+00   1.9677734e+00   1.9726562e+00   1.9775391e+00   1.9677734e+00   1.9580078e+00   1.9433594e+00   1.9189453e+00   1.8994141e+00   1.8701172e+00   1.8408203e+00   1.8017578e+00   1.7578125e+00   1.7138672e+00   1.6699219e+00   1.6259766e+00   1.5869141e+00   1.5478516e+00   1.5185547e+00   1.4892578e+00   1.4599609e+00   1.4404297e+00   1.4257812e+00   1.4111328e+00   1.4013672e+00   1.3964844e+00   1.3916016e+00   1.3916016e+00   1.3867188e+00   1.3867188e+00   1.3818359e+00   1.3769531e+00   1.3671875e+00   1.3525391e+00   1.3476562e+00   1.3378906e+00   1.3232422e+00   1.3134766e+00   1.2988281e+00   1.3037109e+00   1.3037109e+00   1.3037109e+00   1.2988281e+00   1.2988281e+00   1.2939453e+00   1.2841797e+00   1.2792969e+00   1.2792969e+00   1.2744141e+00   1.2646484e+00   1.2646484e+00   1.2548828e+00   1.2548828e+00   1.2548828e+00   1.2500000e+00   1.2500000e+00   1.2451172e+00   1.2451172e+00   1.2451172e+00   1.2597656e+00   1.2792969e+00   1.3134766e+00   1.3623047e+00   1.4306641e+00   1.5039062e+00   1.5673828e+00   1.6406250e+00   1.7089844e+00   1.7724609e+00   1.8164062e+00   1.8603516e+00   1.8945312e+00   1.9238281e+00   1.9384766e+00   1.9531250e+00   1.9580078e+00   1.9531250e+00   1.9482422e+00   1.9335938e+00   1.9140625e+00   1.8896484e+00   1.8554688e+00   1.8261719e+00   1.7822266e+00   1.7382812e+00   1.6943359e+00   1.6552734e+00   1.6113281e+00   1.5673828e+00   1.5283203e+00   1.4990234e+00   1.4746094e+00   1.4501953e+00   1.4306641e+00   1.4160156e+00   1.4062500e+00   1.3964844e+00   1.3916016e+00   1.3867188e+00   1.3867188e+00   1.3867188e+00   1.3818359e+00   1.3867188e+00   1.3867188e+00   1.3867188e+00   1.3818359e+00   1.3769531e+00   1.3720703e+00   1.3623047e+00   1.3525391e+00   1.3427734e+00   1.3330078e+00   1.3183594e+00   1.3085938e+00   1.2939453e+00   1.2841797e+00   1.2792969e+00   1.2744141e+00   1.2646484e+00   1.2597656e+00   1.2500000e+00   1.2451172e+00   1.2304688e+00   1.2255859e+00   1.2158203e+00   1.2060547e+00   1.1914062e+00   1.1767578e+00   1.1621094e+00   1.1621094e+00   1.1718750e+00   1.1962891e+00   1.2500000e+00   1.3134766e+00   1.3916016e+00   1.4746094e+00   1.5576172e+00   1.6259766e+00   1.6943359e+00   1.7578125e+00   1.8115234e+00   1.8505859e+00   1.8896484e+00   1.9189453e+00   1.9384766e+00   1.9482422e+00   1.9531250e+00   1.9531250e+00   1.9433594e+00   1.9287109e+00   1.9091797e+00   1.8847656e+00   1.8505859e+00   1.8164062e+00   1.7822266e+00   1.7431641e+00   1.6992188e+00   1.6601562e+00   1.6259766e+00   1.5917969e+00   1.5576172e+00   1.5283203e+00   1.5039062e+00   1.4843750e+00   1.4648438e+00   1.4599609e+00   1.4453125e+00   1.4355469e+00   1.4306641e+00   1.4306641e+00   1.4208984e+00   1.4111328e+00   1.4062500e+00   1.3916016e+00   1.3818359e+00   1.3769531e+00   1.3623047e+00   1.3574219e+00   1.3427734e+00   1.3281250e+00   1.3183594e+00   1.3037109e+00   1.2939453e+00   1.2841797e+00   1.2744141e+00   1.2646484e+00   1.2548828e+00   1.2500000e+00   1.2451172e+00   1.2402344e+00   1.2353516e+00   1.2304688e+00   1.2255859e+00   1.2207031e+00   1.2207031e+00   1.2109375e+00   1.2060547e+00   1.1962891e+00   1.1914062e+00   1.1865234e+00   1.1865234e+00   1.1962891e+00   1.2255859e+00   1.2744141e+00   1.3476562e+00   1.4208984e+00   1.5039062e+00   1.5869141e+00   1.6650391e+00   1.7285156e+00   1.7871094e+00   1.8408203e+00   1.8847656e+00   1.9189453e+00   1.9433594e+00   1.9677734e+00   1.9775391e+00   1.9873047e+00   1.9873047e+00   1.9873047e+00   1.9824219e+00   1.9726562e+00   1.9628906e+00   1.9384766e+00   1.9140625e+00   1.8847656e+00   1.8505859e+00   1.8115234e+00   1.7724609e+00   1.7285156e+00   1.6943359e+00   1.6552734e+00   1.6210938e+00   1.5917969e+00   1.5576172e+00   1.5380859e+00   1.5185547e+00   1.5087891e+00   1.4941406e+00   1.4892578e+00   1.4746094e+00   1.4697266e+00   1.4550781e+00   1.4453125e+00   1.4355469e+00   1.4257812e+00   1.4160156e+00   1.4013672e+00   1.3916016e+00   1.3720703e+00   1.3623047e+00   1.3476562e+00   1.3330078e+00   1.3183594e+00   1.3037109e+00   1.2841797e+00   1.2792969e+00   1.2646484e+00   1.2548828e+00   1.2402344e+00   1.2304688e+00   1.2207031e+00   1.2109375e+00   1.1962891e+00   1.1816406e+00   1.1669922e+00   1.1523438e+00   1.1328125e+00   1.1132812e+00   1.0986328e+00   1.0839844e+00   1.0791016e+00   1.0986328e+00   1.1328125e+00   1.1962891e+00   1.2792969e+00   1.3720703e+00   1.4501953e+00   1.5332031e+00   1.6113281e+00   1.6796875e+00   1.7285156e+00   1.7822266e+00   1.8261719e+00   1.8603516e+00   1.8847656e+00   1.8994141e+00   1.9091797e+00   1.9140625e+00   1.9140625e+00   1.9091797e+00   1.8994141e+00   1.8847656e+00   1.8603516e+00   1.8359375e+00   1.8017578e+00   1.7626953e+00   1.7236328e+00   1.6845703e+00   1.6406250e+00   1.6015625e+00   1.5625000e+00   1.5283203e+00   1.5039062e+00   1.4843750e+00   1.4648438e+00   1.4453125e+00   1.4355469e+00   1.4208984e+00   1.4111328e+00   1.4062500e+00   1.4013672e+00   1.3964844e+00   1.3916016e+00   1.3867188e+00   1.3818359e+00   1.3720703e+00   1.3623047e+00   1.3574219e+00   1.3476562e+00   1.3427734e+00   1.3330078e+00   1.3232422e+00   1.3085938e+00   1.2988281e+00   1.2792969e+00   1.2646484e+00   1.2451172e+00   1.2304688e+00   1.2109375e+00   1.1962891e+00   1.1718750e+00   1.1523438e+00   1.1474609e+00   1.1425781e+00   1.1376953e+00   1.1425781e+00   1.1523438e+00   1.1718750e+00   1.2158203e+00   1.2744141e+00   1.3378906e+00   1.4160156e+00   1.4941406e+00   1.5673828e+00   1.6308594e+00   1.6943359e+00   1.7431641e+00   1.7871094e+00   1.8164062e+00   1.8359375e+00   1.8505859e+00   1.8603516e+00   1.8603516e+00   1.8554688e+00   1.8457031e+00   1.8310547e+00   1.8164062e+00   1.7968750e+00   1.7724609e+00   1.7382812e+00   1.7041016e+00   1.6699219e+00   1.6357422e+00   1.5966797e+00   1.5625000e+00   1.5234375e+00   1.4941406e+00   1.4648438e+00   1.4404297e+00   1.4208984e+00   1.4111328e+00   1.3964844e+00   1.3867188e+00   1.3867188e+00   1.3818359e+00   1.3769531e+00   1.3769531e+00   1.3720703e+00   1.3671875e+00   1.3671875e+00   1.3623047e+00   1.3574219e+00   1.3525391e+00   1.3476562e+00   1.3427734e+00   1.3330078e+00   1.3232422e+00   1.3232422e+00   1.3134766e+00   1.3085938e+00   1.2988281e+00   1.2890625e+00   1.2841797e+00   1.2695312e+00   1.2597656e+00   1.2500000e+00   1.2402344e+00   1.2304688e+00   1.2207031e+00   1.2060547e+00   1.1914062e+00   1.1865234e+00   1.1962891e+00   1.2207031e+00   1.2646484e+00   1.3330078e+00   1.4160156e+00   1.4990234e+00   1.5722656e+00   1.6503906e+00   1.7236328e+00   1.7871094e+00   1.8359375e+00   1.8798828e+00   1.9238281e+00   1.9531250e+00   1.9726562e+00   1.9873047e+00   1.9921875e+00   1.9921875e+00   1.9873047e+00   1.9824219e+00   1.9726562e+00   1.9580078e+00   1.9384766e+00   1.9140625e+00   1.8847656e+00   1.8505859e+00   1.8066406e+00   1.7724609e+00   1.7333984e+00   1.6943359e+00   1.6552734e+00   1.6259766e+00   1.5966797e+00   1.5771484e+00   1.5576172e+00   1.5380859e+00   1.5234375e+00   1.5136719e+00   1.4990234e+00   1.4941406e+00   1.4843750e+00   1.4794922e+00   1.4697266e+00   1.4599609e+00   1.4550781e+00   1.4453125e+00   1.4355469e+00   1.4257812e+00   1.4160156e+00   1.4062500e+00   1.3916016e+00   1.3769531e+00   1.3671875e+00   1.3525391e+00   1.3378906e+00   1.3232422e+00   1.3085938e+00   1.2939453e+00   1.2841797e+00   1.2695312e+00   1.2548828e+00   1.2402344e+00   1.2207031e+00   1.2109375e+00   1.1962891e+00   1.1962891e+00   1.2158203e+00   1.2548828e+00   1.3183594e+00   1.3916016e+00   1.4648438e+00   1.5478516e+00   1.6308594e+00   1.7041016e+00   1.7578125e+00   1.8164062e+00   1.8652344e+00   1.9042969e+00   1.9335938e+00   1.9580078e+00   1.9677734e+00   1.9775391e+00   1.9775391e+00   1.9824219e+00   1.9726562e+00   1.9628906e+00   1.9482422e+00   1.9287109e+00   1.9042969e+00   1.8701172e+00   1.8359375e+00   1.8017578e+00   1.7626953e+00   1.7187500e+00   1.6748047e+00   1.6455078e+00   1.6113281e+00   1.5820312e+00   1.5478516e+00   1.5380859e+00   1.5283203e+00   1.5136719e+00   1.5087891e+00   1.5087891e+00   1.4941406e+00   1.4892578e+00   1.4843750e+00   1.4843750e+00   1.4843750e+00   1.4794922e+00   1.4746094e+00   1.4648438e+00   1.4550781e+00   1.4453125e+00   1.4355469e+00   1.4208984e+00   1.4111328e+00   1.4013672e+00   1.3867188e+00   1.3623047e+00   1.3378906e+00   1.3183594e+00   1.2988281e+00   1.2744141e+00   1.2597656e+00   1.2402344e+00   1.2255859e+00   1.2060547e+00   1.1962891e+00   1.1816406e+00   1.1718750e+00   1.1865234e+00   1.2207031e+00   1.2744141e+00   1.3427734e+00   1.4355469e+00   1.5283203e+00   1.6162109e+00   1.6894531e+00   1.7626953e+00   1.8066406e+00   1.8505859e+00   1.8945312e+00   1.9287109e+00   1.9580078e+00   1.9775391e+00   1.9873047e+00   1.9921875e+00   1.9921875e+00   1.9824219e+00   1.9628906e+00   1.9433594e+00   1.9189453e+00   1.8896484e+00   1.8554688e+00   1.8017578e+00   1.7480469e+00   1.6943359e+00   1.6503906e+00   1.6113281e+00   1.5673828e+00   1.5332031e+00   1.4990234e+00   1.4746094e+00   1.4501953e+00   1.4404297e+00   1.4257812e+00   1.4160156e+00   1.4062500e+00   1.3964844e+00   1.3916016e+00   1.3867188e+00   1.3818359e+00   1.3769531e+00   1.3671875e+00   1.3671875e+00   1.3623047e+00   1.3525391e+00   1.3427734e+00   1.3378906e+00   1.3232422e+00   1.3134766e+00   1.3037109e+00   1.2939453e+00   1.2841797e+00   1.2744141e+00   1.2646484e+00   1.2548828e+00   1.2451172e+00   1.2353516e+00   1.2207031e+00   1.2109375e+00   1.1962891e+00   1.1865234e+00   1.1718750e+00   1.1621094e+00   1.1474609e+00   1.1328125e+00   1.1328125e+00   1.1376953e+00   1.1621094e+00   1.2109375e+00   1.2792969e+00   1.3671875e+00   1.4550781e+00   1.5478516e+00   1.6162109e+00   1.6943359e+00   1.7578125e+00   1.8164062e+00   1.8554688e+00   1.8896484e+00   1.9189453e+00   1.9335938e+00   1.9433594e+00   1.9433594e+00   1.9384766e+00   1.9238281e+00   1.9042969e+00   1.8798828e+00   1.8457031e+00   1.8066406e+00   1.7626953e+00   1.7236328e+00   1.6845703e+00   1.6455078e+00   1.6064453e+00   1.5771484e+00   1.5478516e+00   1.5185547e+00   1.4990234e+00   1.4843750e+00   1.4697266e+00   1.4599609e+00   1.4501953e+00   1.4404297e+00   1.4404297e+00   1.4404297e+00   1.4404297e+00   1.4306641e+00   1.4306641e+00   1.4257812e+00   1.4208984e+00   1.4160156e+00   1.4062500e+00   1.4013672e+00   1.3916016e+00   1.3867188e+00   1.3769531e+00   1.3720703e+00   1.3671875e+00   1.3574219e+00   1.3476562e+00   1.3378906e+00   1.3281250e+00   1.3183594e+00   1.3085938e+00   1.2939453e+00   1.2841797e+00   1.2744141e+00   1.2646484e+00   1.2548828e+00   1.2451172e+00   1.2353516e+00   1.2304688e+00   1.2255859e+00   1.2353516e+00   1.2646484e+00   1.3134766e+00   1.3867188e+00   1.4697266e+00   1.5576172e+00   1.6455078e+00   1.7236328e+00   1.7871094e+00   1.8554688e+00   1.9140625e+00   1.9580078e+00   1.9970703e+00   2.0263672e+00   2.0458984e+00   2.0605469e+00   2.0654297e+00   2.0605469e+00   2.0556641e+00   2.0410156e+00   2.0263672e+00   2.0068359e+00   1.9775391e+00   1.9433594e+00   1.9091797e+00   1.8701172e+00   1.8310547e+00   1.7919922e+00   1.7529297e+00   1.7236328e+00   1.6943359e+00   1.6699219e+00   1.6503906e+00   1.6357422e+00   1.6210938e+00   1.6113281e+00   1.6015625e+00   1.5966797e+00   1.5869141e+00   1.5820312e+00   1.5722656e+00   1.5625000e+00   1.5527344e+00   1.5429688e+00   1.5332031e+00   1.5185547e+00   1.4990234e+00   1.4892578e+00   1.4697266e+00   1.4550781e+00   1.4404297e+00   1.4257812e+00   1.4062500e+00   1.3916016e+00   1.3720703e+00   1.3574219e+00   1.3427734e+00   1.3281250e+00   1.3134766e+00   1.2988281e+00   1.2841797e+00   1.2744141e+00   1.2597656e+00   1.2500000e+00   1.2402344e+00   1.2255859e+00   1.2158203e+00   1.2060547e+00   1.1962891e+00   1.1914062e+00   1.1962891e+00   1.2109375e+00   1.2500000e+00   1.3183594e+00   1.3964844e+00   1.4843750e+00   1.5625000e+00   1.6503906e+00   1.7236328e+00   1.7919922e+00   1.8505859e+00   1.9042969e+00   1.9482422e+00   1.9824219e+00   2.0068359e+00   2.0263672e+00   2.0361328e+00   2.0458984e+00   2.0458984e+00   2.0361328e+00   2.0263672e+00   2.0068359e+00   1.9824219e+00   1.9580078e+00   1.9287109e+00   1.8896484e+00   1.8554688e+00   1.8164062e+00   1.7822266e+00   1.7431641e+00   1.7089844e+00   1.6845703e+00   1.6503906e+00   1.6259766e+00   1.6015625e+00   1.5820312e+00   1.5722656e+00   1.5576172e+00   1.5429688e+00   1.5332031e+00   1.5234375e+00   1.5087891e+00   1.4990234e+00   1.4892578e+00   1.4746094e+00   1.4648438e+00   1.4453125e+00   1.4306641e+00   1.4208984e+00   1.4013672e+00   1.3818359e+00   1.3671875e+00   1.3476562e+00   1.3330078e+00   1.3134766e+00   1.2939453e+00   1.2792969e+00   1.2646484e+00   1.2500000e+00   1.2353516e+00   1.2207031e+00   1.2109375e+00   1.1962891e+00   1.1816406e+00   1.1767578e+00   1.1621094e+00   1.1523438e+00   1.1425781e+00   1.1328125e+00   1.1230469e+00   1.1132812e+00   1.1035156e+00   1.0986328e+00   1.0937500e+00   1.0888672e+00   1.0986328e+00   1.1230469e+00   1.1718750e+00   1.2402344e+00   1.3330078e+00   1.4306641e+00   1.5234375e+00   1.6064453e+00   1.6943359e+00   1.7675781e+00   1.8310547e+00   1.8896484e+00   1.9384766e+00   1.9726562e+00   1.9970703e+00   2.0166016e+00   2.0263672e+00   2.0361328e+00   2.0312500e+00   2.0263672e+00   2.0166016e+00   1.9970703e+00   1.9726562e+00   1.9433594e+00   1.9091797e+00   1.8701172e+00   1.8261719e+00   1.7773438e+00   1.7382812e+00   1.7041016e+00   1.6650391e+00   1.6259766e+00   1.5917969e+00   1.5722656e+00   1.5429688e+00   1.5234375e+00   1.5039062e+00   1.4892578e+00   1.4794922e+00   1.4697266e+00   1.4550781e+00   1.4404297e+00   1.4355469e+00   1.4208984e+00   1.4111328e+00   1.4013672e+00   1.3867188e+00   1.3769531e+00   1.3623047e+00   1.3525391e+00   1.3427734e+00   1.3330078e+00   1.3183594e+00   1.3085938e+00   1.2890625e+00   1.2744141e+00   1.2597656e+00   1.2451172e+00   1.2304688e+00   1.2207031e+00   1.2060547e+00   1.1962891e+00   1.1816406e+00   1.1767578e+00   1.1669922e+00   1.1523438e+00   1.1474609e+00   1.1425781e+00   1.1376953e+00   1.1328125e+00   1.1279297e+00   1.1279297e+00   1.1230469e+00   1.1230469e+00   1.1279297e+00   1.1279297e+00   1.1230469e+00   1.1230469e+00   1.1181641e+00   1.1181641e+00   1.1230469e+00   1.1474609e+00   1.1865234e+00   1.2500000e+00   1.3281250e+00   1.4208984e+00   1.5136719e+00   1.6064453e+00   1.6845703e+00   1.7626953e+00   1.8310547e+00   1.8847656e+00   1.9238281e+00   1.9580078e+00   1.9824219e+00   1.9921875e+00   1.9921875e+00   1.9873047e+00   1.9726562e+00   1.9580078e+00   1.9384766e+00   1.9140625e+00   1.8798828e+00   1.8408203e+00   1.7968750e+00   1.7578125e+00   1.7089844e+00   1.6650391e+00   1.6210938e+00   1.5771484e+00   1.5380859e+00   1.5039062e+00   1.4746094e+00   1.4550781e+00   1.4404297e+00   1.4257812e+00   1.4111328e+00   1.4062500e+00   1.4062500e+00   1.4013672e+00   1.3964844e+00   1.3916016e+00   1.3916016e+00   1.3867188e+00   1.3867188e+00   1.3818359e+00   1.3769531e+00   1.3671875e+00   1.3623047e+00   1.3574219e+00   1.3476562e+00   1.3476562e+00   1.3378906e+00   1.3281250e+00   1.3232422e+00   1.3183594e+00   1.3037109e+00   1.2890625e+00   1.2792969e+00   1.2646484e+00   1.2500000e+00   1.2402344e+00   1.2207031e+00   1.2060547e+00   1.1962891e+00   1.1767578e+00   1.1621094e+00   1.1523438e+00   1.1376953e+00   1.1181641e+00   1.1083984e+00   1.0986328e+00   1.0888672e+00   1.0986328e+00   1.1181641e+00   1.1669922e+00   1.2304688e+00   1.3134766e+00   1.4062500e+00   1.4941406e+00   1.5722656e+00   1.6503906e+00   1.7138672e+00   1.7773438e+00   1.8261719e+00   1.8603516e+00   1.8896484e+00   1.9042969e+00   1.9140625e+00   1.9189453e+00   1.9189453e+00   1.9042969e+00   1.8896484e+00   1.8701172e+00   1.8408203e+00   1.8066406e+00   1.7724609e+00   1.7333984e+00   1.6894531e+00   1.6455078e+00   1.6015625e+00   1.5673828e+00   1.5332031e+00   1.5039062e+00   1.4746094e+00   1.4550781e+00   1.4404297e+00   1.4306641e+00   1.4160156e+00   1.4111328e+00   1.4062500e+00   1.4013672e+00   1.3964844e+00   1.3916016e+00   1.3867188e+00   1.3867188e+00   1.3818359e+00   1.3769531e+00   1.3671875e+00   1.3574219e+00   1.3476562e+00   1.3427734e+00   1.3281250e+00   1.3281250e+00   1.3134766e+00   1.2988281e+00   1.2841797e+00   1.2792969e+00   1.2695312e+00   1.2548828e+00   1.2451172e+00   1.2304688e+00   1.2207031e+00   1.2109375e+00   1.2011719e+00   1.1914062e+00   1.1767578e+00   1.1669922e+00   1.1572266e+00   1.1474609e+00   1.1376953e+00   1.1279297e+00   1.1230469e+00   1.1279297e+00   1.1425781e+00   1.1718750e+00   1.2158203e+00   1.2792969e+00   1.3525391e+00   1.4550781e+00   1.5625000e+00   1.6601562e+00   1.7480469e+00   1.8359375e+00   1.9091797e+00   1.9726562e+00   2.0263672e+00   2.0556641e+00   2.0800781e+00   2.0996094e+00   2.1191406e+00   2.1240234e+00   2.1289062e+00   2.1044922e+00   2.0751953e+00   2.0458984e+00   2.0166016e+00   1.9824219e+00   1.9433594e+00   1.8994141e+00   1.8505859e+00   1.8017578e+00   1.7578125e+00   1.7138672e+00   1.6748047e+00   1.6406250e+00   1.6064453e+00   1.5771484e+00   1.5576172e+00   1.5380859e+00   1.5234375e+00   1.5087891e+00   1.4990234e+00   1.4941406e+00   1.4892578e+00   1.4843750e+00   1.4794922e+00   1.4746094e+00   1.4648438e+00   1.4550781e+00   1.4404297e+00   1.4306641e+00   1.4160156e+00   1.4111328e+00   1.3964844e+00   1.3867188e+00   1.3720703e+00   1.3574219e+00   1.3525391e+00   1.3330078e+00   1.3232422e+00   1.3085938e+00   1.2988281e+00   1.2841797e+00   1.2695312e+00   1.2597656e+00   1.2500000e+00   1.2353516e+00   1.2255859e+00   1.2109375e+00   1.1962891e+00   1.1865234e+00   1.1718750e+00   1.1572266e+00   1.1474609e+00   1.1328125e+00   1.1279297e+00   1.1230469e+00   1.1376953e+00   1.1767578e+00   1.2353516e+00   1.3183594e+00   1.4111328e+00   1.5087891e+00   1.6064453e+00   1.6943359e+00   1.7724609e+00   1.8505859e+00   1.9091797e+00   1.9580078e+00   2.0068359e+00   2.0410156e+00   2.0654297e+00   2.0800781e+00   2.0849609e+00   2.0898438e+00   2.0849609e+00   2.0751953e+00   2.0605469e+00   2.0410156e+00   2.0166016e+00   1.9873047e+00   1.9580078e+00   1.9189453e+00   1.8798828e+00   1.8359375e+00   1.7968750e+00   1.7578125e+00   1.7187500e+00   1.6845703e+00   1.6552734e+00   1.6259766e+00   1.5966797e+00   1.5722656e+00   1.5576172e+00   1.5380859e+00   1.5234375e+00   1.5136719e+00   1.4990234e+00   1.4892578e+00   1.4794922e+00   1.4648438e+00   1.4550781e+00   1.4501953e+00   1.4355469e+00   1.4208984e+00   1.4062500e+00   1.3964844e+00   1.3818359e+00   1.3671875e+00   1.3525391e+00   1.3378906e+00   1.3183594e+00   1.3037109e+00   1.2890625e+00   1.2744141e+00   1.2646484e+00   1.2500000e+00   1.2353516e+00   1.2207031e+00   1.2158203e+00   1.2060547e+00   1.1962891e+00   1.1865234e+00   1.1816406e+00   1.1718750e+00   1.1621094e+00   1.1572266e+00   1.1523438e+00   1.1474609e+00   1.1376953e+00   1.1328125e+00   1.1279297e+00   1.1230469e+00   1.1230469e+00   1.1279297e+00   1.1376953e+00   1.1718750e+00   1.2304688e+00   1.3037109e+00   1.4013672e+00   1.4892578e+00   1.5869141e+00   1.6748047e+00   1.7626953e+00   1.8261719e+00   1.8945312e+00   1.9531250e+00   1.9970703e+00   2.0361328e+00   2.0605469e+00   2.0800781e+00   2.0898438e+00   2.0996094e+00   2.0947266e+00   2.0849609e+00   2.0703125e+00   2.0556641e+00   2.0312500e+00   2.0068359e+00   1.9726562e+00   1.9335938e+00   1.8945312e+00   1.8505859e+00   1.8017578e+00   1.7626953e+00   1.7187500e+00   1.6845703e+00   1.6455078e+00   1.6113281e+00   1.5820312e+00   1.5576172e+00   1.5380859e+00   1.5185547e+00   1.5087891e+00   1.4941406e+00   1.4892578e+00   1.4794922e+00   1.4746094e+00   1.4648438e+00   1.4599609e+00   1.4550781e+00   1.4404297e+00   1.4306641e+00   1.4160156e+00   1.4062500e+00   1.3964844e+00   1.3818359e+00   1.3671875e+00   1.3525391e+00   1.3378906e+00   1.3232422e+00   1.3134766e+00   1.2988281e+00   1.2841797e+00   1.2646484e+00   1.2548828e+00   1.2402344e+00   1.2255859e+00   1.2158203e+00   1.2060547e+00   1.1962891e+00   1.1865234e+00   1.1767578e+00   1.1718750e+00   1.1669922e+00   1.1572266e+00   1.1621094e+00   1.1572266e+00   1.1523438e+00   1.1523438e+00   1.1523438e+00   1.1474609e+00   1.1425781e+00   1.1376953e+00   1.1328125e+00   1.1328125e+00   1.1376953e+00   1.1474609e+00   1.1865234e+00   1.2451172e+00   1.3330078e+00   1.4160156e+00   1.5185547e+00   1.6210938e+00   1.7138672e+00   1.7919922e+00   1.8701172e+00   1.9335938e+00   1.9921875e+00   2.0361328e+00   2.0751953e+00   2.0996094e+00   2.1191406e+00   2.1289062e+00   2.1289062e+00   2.1240234e+00   2.1142578e+00   2.0996094e+00   2.0800781e+00   2.0507812e+00   2.0214844e+00   1.9873047e+00   1.9531250e+00   1.9091797e+00   1.8701172e+00   1.8261719e+00   1.7871094e+00   1.7480469e+00   1.7138672e+00   1.6796875e+00   1.6503906e+00   1.6308594e+00   1.6064453e+00   1.5869141e+00   1.5722656e+00   1.5576172e+00   1.5478516e+00   1.5380859e+00   1.5283203e+00   1.5136719e+00   1.5136719e+00   1.5039062e+00   1.4941406e+00   1.4843750e+00   1.4746094e+00   1.4648438e+00   1.4550781e+00   1.4404297e+00   1.4355469e+00   1.4208984e+00   1.4062500e+00   1.3916016e+00   1.3720703e+00   1.3623047e+00   1.3476562e+00   1.3330078e+00   1.3183594e+00   1.3085938e+00   1.2988281e+00   1.2890625e+00   1.2744141e+00   1.2597656e+00   1.2500000e+00   1.2353516e+00   1.2207031e+00   1.2109375e+00   1.2011719e+00   1.1962891e+00   1.1816406e+00   1.1816406e+00   1.1718750e+00   1.1621094e+00   1.1572266e+00   1.1523438e+00   1.1523438e+00   1.1474609e+00   1.1474609e+00   1.1425781e+00   1.1425781e+00   1.1474609e+00   1.1621094e+00   1.1914062e+00   1.2402344e+00   1.3134766e+00   1.4062500e+00   1.5039062e+00   1.5917969e+00   1.6796875e+00   1.7626953e+00   1.8359375e+00   1.8945312e+00   1.9482422e+00   1.9921875e+00   2.0312500e+00   2.0556641e+00   2.0703125e+00   2.0751953e+00   2.0800781e+00   2.0703125e+00   2.0605469e+00   2.0410156e+00   2.0166016e+00   1.9921875e+00   1.9628906e+00   1.9238281e+00   1.8798828e+00   1.8310547e+00   1.7919922e+00   1.7431641e+00   1.6992188e+00   1.6552734e+00   1.6162109e+00   1.5869141e+00   1.5625000e+00   1.5332031e+00   1.5185547e+00   1.4990234e+00   1.4892578e+00   1.4746094e+00   1.4697266e+00   1.4648438e+00   1.4599609e+00   1.4501953e+00   1.4453125e+00   1.4404297e+00   1.4306641e+00   1.4208984e+00   1.4160156e+00   1.4062500e+00   1.3964844e+00   1.3916016e+00   1.3769531e+00   1.3623047e+00   1.3525391e+00   1.3378906e+00   1.3183594e+00   1.3037109e+00   1.2939453e+00   1.2792969e+00   1.2695312e+00   1.2548828e+00   