   6.2011719e-01   6.2988281e-01   6.3964844e-01   6.4453125e-01   6.4941406e-01   6.4941406e-01   6.5429688e-01   6.5917969e-01   6.6406250e-01   6.6894531e-01   6.6894531e-01   6.7382812e-01   6.7382812e-01   6.7871094e-01   6.7382812e-01   6.7871094e-01   6.7382812e-01   6.7382812e-01   6.7382812e-01   6.6894531e-01   6.6894531e-01   6.6406250e-01   6.5917969e-01   6.5917969e-01   6.5429688e-01   6.5429688e-01   6.5429688e-01   6.4941406e-01   6.4941406e-01   6.4941406e-01   6.4941406e-01   6.4453125e-01   6.4453125e-01   6.4453125e-01   6.3964844e-01   6.3964844e-01   6.3476562e-01   6.2988281e-01   6.2988281e-01   6.2988281e-01   6.2500000e-01   6.2011719e-01   6.1523438e-01   6.1523438e-01   6.1035156e-01   6.1035156e-01   6.0546875e-01   6.0546875e-01   6.0058594e-01   6.0058594e-01   5.9570312e-01   5.9570312e-01   5.9570312e-01   5.9082031e-01   5.9082031e-01   5.8593750e-01   5.8593750e-01   5.8593750e-01   5.8105469e-01   5.8105469e-01   5.8105469e-01   5.7617188e-01   5.7617188e-01   5.7128906e-01   5.7128906e-01   5.7128906e-01   5.6640625e-01   5.6640625e-01   5.6152344e-01   5.6152344e-01   5.6152344e-01   5.6152344e-01   5.6640625e-01   5.7128906e-01   5.7128906e-01   5.8105469e-01   5.9082031e-01   5.9570312e-01   6.0546875e-01   6.1035156e-01   6.2011719e-01   6.2988281e-01   6.3476562e-01   6.4453125e-01   6.4941406e-01   6.5429688e-01   6.5917969e-01   6.6406250e-01   6.6894531e-01   6.7382812e-01   6.7871094e-01   6.8359375e-01   6.8359375e-01   6.8847656e-01   6.9335938e-01   6.9335938e-01   6.9335938e-01   6.9335938e-01   6.9335938e-01   6.8847656e-01   6.8847656e-01   6.8359375e-01   6.8359375e-01   6.7871094e-01   6.7382812e-01   6.7382812e-01   6.6894531e-01   6.7382812e-01   6.6894531e-01   6.6406250e-01   6.6406250e-01   6.6406250e-01   6.6406250e-01   6.6406250e-01   6.5917969e-01   6.6406250e-01   6.6406250e-01   6.5917969e-01   6.5917969e-01   6.5429688e-01   6.5429688e-01   6.5429688e-01   6.4941406e-01   6.4453125e-01   6.4453125e-01   6.3964844e-01   6.3964844e-01   6.3476562e-01   6.3476562e-01   6.3476562e-01   6.2988281e-01   6.2988281e-01   6.2988281e-01   6.2988281e-01   6.2500000e-01   6.2011719e-01   6.2011719e-01   6.1523438e-01   6.1523438e-01   6.1035156e-01   6.1035156e-01   6.1035156e-01   6.0546875e-01   6.0058594e-01   6.0058594e-01   5.9570312e-01   5.9570312e-01   5.9082031e-01   5.8593750e-01   5.8593750e-01   5.8593750e-01   5.8593750e-01   5.8593750e-01   5.9082031e-01   5.9082031e-01   5.9570312e-01   6.0058594e-01   6.1035156e-01   6.1523438e-01   6.2500000e-01   6.2988281e-01   6.3476562e-01   6.4453125e-01   6.4941406e-01   6.5429688e-01   6.6406250e-01   6.6894531e-01   6.7382812e-01   6.7871094e-01   6.8359375e-01   6.9335938e-01   6.9335938e-01   6.9824219e-01   6.9824219e-01   6.9824219e-01   6.9824219e-01   6.9824219e-01   6.9824219e-01   6.9335938e-01   6.9335938e-01   6.9335938e-01   6.8847656e-01   6.8359375e-01   6.8359375e-01   6.7871094e-01   6.7382812e-01   6.7382812e-01   6.6894531e-01   6.6894531e-01   6.6406250e-01   6.6406250e-01   6.5917969e-01   6.5917969e-01   6.5917969e-01   6.5917969e-01   6.5429688e-01   6.5429688e-01   6.4941406e-01   6.4941406e-01   6.4453125e-01   6.4453125e-01   6.3964844e-01   6.3476562e-01   6.3476562e-01   6.2988281e-01   6.2988281e-01   6.2988281e-01   6.2988281e-01   6.2500000e-01   6.2500000e-01   6.2011719e-01   6.1523438e-01   6.1523438e-01   6.1523438e-01   6.1523438e-01   6.1523438e-01   6.1035156e-01   6.1035156e-01   6.0546875e-01   6.0546875e-01   6.0058594e-01   6.0058594e-01   6.0058594e-01   5.9570312e-01   5.9570312e-01   5.9082031e-01   5.9082031e-01   5.8593750e-01   5.8593750e-01   5.8593750e-01   5.8593750e-01   5.8593750e-01   5.8593750e-01   5.8593750e-01   5.8593750e-01   5.8593750e-01   5.9082031e-01   6.0058594e-01   6.0546875e-01   6.1523438e-01   6.1523438e-01   6.2988281e-01   6.3476562e-01   6.4453125e-01   6.4941406e-01   6.5917969e-01   6.6894531e-01   6.6894531e-01   6.7382812e-01   6.8359375e-01   6.8847656e-01   6.9335938e-01   6.9824219e-01   6.9824219e-01   7.0312500e-01   7.0312500e-01   7.0312500e-01   7.0312500e-01   7.0312500e-01   7.0312500e-01   6.9824219e-01   6.9824219e-01   6.9824219e-01   6.8847656e-01   6.8847656e-01   6.8359375e-01   6.7871094e-01   6.7871094e-01   6.7382812e-01   6.6894531e-01   6.6894531e-01   6.6406250e-01   6.5917969e-01   6.5917969e-01   6.5429688e-01   6.5429688e-01   6.5429688e-01   6.4941406e-01   6.4453125e-01   6.4453125e-01   6.3964844e-01   6.3964844e-01   6.3476562e-01   6.3476562e-01   6.2988281e-01   6.2500000e-01   6.2500000e-01   6.2011719e-01   6.2011719e-01   6.1523438e-01   6.1523438e-01   6.1035156e-01   6.1035156e-01   6.0546875e-01   6.0546875e-01   6.0546875e-01   6.0546875e-01   6.0058594e-01   5.9570312e-01   5.9570312e-01   5.9082031e-01   5.9082031e-01   5.8593750e-01   5.8593750e-01   5.8105469e-01   5.8105469e-01   5.7617188e-01   5.7617188e-01   5.7617188e-01   5.7617188e-01   5.7128906e-01   5.7128906e-01   5.7128906e-01   5.7128906e-01   5.7128906e-01   5.7128906e-01   5.7128906e-01   5.7128906e-01   5.7617188e-01   5.8105469e-01   5.9082031e-01   5.9082031e-01   6.0058594e-01   6.1035156e-01   6.1523438e-01   6.2500000e-01   6.2988281e-01   6.3964844e-01   6.4941406e-01   6.5429688e-01   6.5917969e-01   6.6894531e-01   6.6894531e-01   6.7382812e-01   6.7871094e-01   6.8359375e-01   6.8847656e-01   6.8847656e-01   6.8847656e-01   6.9335938e-01   6.9335938e-01   6.9335938e-01   6.8847656e-01   6.8847656e-01   6.8359375e-01   6.7871094e-01   6.7871094e-01   6.7871094e-01   6.7382812e-01   6.6894531e-01   6.6894531e-01   6.6406250e-01   6.5917969e-01   6.5429688e-01   6.5429688e-01   6.5429688e-01   6.4941406e-01   6.4453125e-01   6.4453125e-01   6.3964844e-01   6.3964844e-01   6.3476562e-01   6.3476562e-01   6.2988281e-01   6.2988281e-01   6.2500000e-01   6.2500000e-01   6.2011719e-01   6.2011719e-01   6.1523438e-01   6.1523438e-01   6.1035156e-01   6.0546875e-01   6.0546875e-01   6.0058594e-01   6.0058594e-01   5.9570312e-01   5.9570312e-01   5.9570312e-01   5.9082031e-01   5.8593750e-01   5.8593750e-01   5.8593750e-01   5.8105469e-01   5.8105469e-01   5.8105469e-01   5.7617188e-01   5.7617188e-01   5.7617188e-01   5.7128906e-01   5.7128906e-01   5.6640625e-01   5.6640625e-01   5.6640625e-01   5.6152344e-01   5.6152344e-01   5.5664062e-01   5.5664062e-01   5.6152344e-01   5.5664062e-01   5.6152344e-01   5.7128906e-01   5.7617188e-01   5.8593750e-01   5.9082031e-01   6.0058594e-01   6.1035156e-01   6.1523438e-01   6.2988281e-01   6.3476562e-01   6.4453125e-01   6.5429688e-01   6.5917969e-01   6.6894531e-01   6.7382812e-01   6.7871094e-01   6.8359375e-01   6.8847656e-01   6.9335938e-01   6.9824219e-01   6.9824219e-01   6.9824219e-01   7.0312500e-01   6.9824219e-01   6.9824219e-01   6.9824219e-01   6.9824219e-01   6.9824219e-01   6.9335938e-01   6.8847656e-01   6.8359375e-01   6.7871094e-01   6.7871094e-01   6.7382812e-01   6.7382812e-01   6.7382812e-01   6.6894531e-01   6.6406250e-01   6.6406250e-01   6.5917969e-01   6.5429688e-01   6.4941406e-01   6.4941406e-01   6.4453125e-01   6.3964844e-01   6.3964844e-01   6.3964844e-01   6.3476562e-01   6.2988281e-01   6.2988281e-01   6.2500000e-01   6.2011719e-01   6.2011719e-01   6.1523438e-01   6.1523438e-01   6.1035156e-01   6.1035156e-01   6.0546875e-01   6.0058594e-01   6.0058594e-01   5.9570312e-01   5.9570312e-01   5.9082031e-01   5.9082031e-01   5.9082031e-01   5.8593750e-01   5.8593750e-01   5.8105469e-01   5.7617188e-01   5.8105469e-01   5.8105469e-01   5.7617188e-01   5.7617188e-01   5.7128906e-01   5.7128906e-01   5.7128906e-01   5.7128906e-01   5.6640625e-01   5.6640625e-01   5.6640625e-01   5.6152344e-01   5.6152344e-01   5.6152344e-01   5.6152344e-01   5.5664062e-01   5.5664062e-01   5.6152344e-01   5.6152344e-01   5.6640625e-01   5.7128906e-01   5.7617188e-01   5.8593750e-01   5.9570312e-01   6.0546875e-01   6.1035156e-01   6.2011719e-01   6.2988281e-01   6.3964844e-01   6.4453125e-01   6.5917969e-01   6.6406250e-01   6.6894531e-01   6.7382812e-01   6.8359375e-01   6.8847656e-01   6.8847656e-01   6.9335938e-01   6.9824219e-01   6.9824219e-01   6.9824219e-01   6.9824219e-01   7.0312500e-01   7.0312500e-01   6.9824219e-01   6.9824219e-01   6.9824219e-01   6.9335938e-01   6.9335938e-01   6.8847656e-01   6.8359375e-01   6.8359375e-01   6.7871094e-01   6.7871094e-01   6.7382812e-01   6.7382812e-01   6.6894531e-01   6.6894531e-01   6.6894531e-01   6.6406250e-01   6.5917969e-01   6.5917969e-01   6.5429688e-01   6.5429688e-01   6.4941406e-01   6.4453125e-01   6.4453125e-01   6.3964844e-01   6.3476562e-01   6.3476562e-01   6.2988281e-01   6.2988281e-01   6.2988281e-01   6.2011719e-01   6.2011719e-01   6.1523438e-01   6.1523438e-01   6.1035156e-01   6.0546875e-01   6.0058594e-01   6.0058594e-01   6.0058594e-01   5.9570312e-01   5.9570312e-01   5.9082031e-01   5.9082031e-01   5.8593750e-01   5.8593750e-01   5.8105469e-01   5.7617188e-01   5.7617188e-01   5.7617188e-01   5.7617188e-01   5.7617188e-01   5.7128906e-01   5.7128906e-01   5.6640625e-01   5.6152344e-01   5.6640625e-01   5.6152344e-01   5.5664062e-01   5.6152344e-01   5.5664062e-01   5.5664062e-01   5.6152344e-01   5.5664062e-01   5.6640625e-01   5.6640625e-01   5.7617188e-01   5.8593750e-01   5.9082031e-01   6.0058594e-01   6.1035156e-01   6.1523438e-01   6.2988281e-01   6.3476562e-01   6.4453125e-01   6.4941406e-01   6.5429688e-01   6.6406250e-01   6.6894531e-01   6.7382812e-01   6.7871094e-01   6.8359375e-01   6.8359375e-01   6.8847656e-01   6.8847656e-01   6.9335938e-01   6.9335938e-01   6.8847656e-01   6.9335938e-01   6.8847656e-01   6.8359375e-01   6.8359375e-01   6.7871094e-01   6.7871094e-01   6.7382812e-01   6.6894531e-01   6.6894531e-01   6.6406250e-01   6.5917969e-01   6.5917969e-01   6.5429688e-01   6.5429688e-01   6.4941406e-01   6.4941406e-01   6.4941406e-01   6.4453125e-01   6.4453125e-01   6.3964844e-01   6.3964844e-01   6.3476562e-01   6.2988281e-01   6.2988281e-01   6.2500000e-01   6.2011719e-01   6.2011719e-01   6.1523438e-01   6.1523438e-01   6.1035156e-01   6.1035156e-01   6.0546875e-01   6.0546875e-01   6.0058594e-01   5.9570312e-01   5.9082031e-01   5.9082031e-01   5.8593750e-01   5.8593750e-01   5.8105469e-01   5.8105469e-01   5.7617188e-01   5.7617188e-01   5.7128906e-01   5.7128906e-01   5.7128906e-01   5.6640625e-01   5.6640625e-01   5.6152344e-01   5.6152344e-01   5.5664062e-01   5.5664062e-01   5.5175781e-01   5.5175781e-01   5.5175781e-01   5.5175781e-01   5.5175781e-01   5.4687500e-01   5.4687500e-01   5.4687500e-01   5.4687500e-01   5.4687500e-01   5.4687500e-01   5.4687500e-01   5.4687500e-01   5.5175781e-01   5.5664062e-01   5.6152344e-01   5.6640625e-01   5.7617188e-01   5.8593750e-01   5.9570312e-01   6.0058594e-01   6.1035156e-01   6.2011719e-01   6.2500000e-01   6.3476562e-01   6.3964844e-01   6.4453125e-01   6.4941406e-01   6.5429688e-01   6.5917969e-01   6.6406250e-01   6.6406250e-01   6.6894531e-01   6.7382812e-01   6.6894531e-01   6.7382812e-01   6.7382812e-01   6.7382812e-01   6.6894531e-01   6.6894531e-01   6.6894531e-01   6.6406250e-01   6.5917969e-01   6.5917969e-01   6.5429688e-01   6.4941406e-01   6.4941406e-01   6.4453125e-01   6.4453125e-01   6.4453125e-01   6.3964844e-01   6.3964844e-01   6.3964844e-01   6.3476562e-01   6.3476562e-01   6.2988281e-01   6.2988281e-01   6.2988281e-01   6.2988281e-01   6.2500000e-01   6.2011719e-01   6.2011719e-01   6.1523438e-01   6.1523438e-01   6.1523438e-01   6.1035156e-01   6.1035156e-01   6.1035156e-01   6.0546875e-01   6.0546875e-01   6.0058594e-01   6.0058594e-01   5.9570312e-01   5.9570312e-01   5.9570312e-01   5.9570312e-01   5.9082031e-01   5.9082031e-01   5.9082031e-01   5.8593750e-01   5.8593750e-01   5.8593750e-01   5.8105469e-01   5.8105469e-01   5.8105469e-01   5.7617188e-01   5.8105469e-01   5.7617188e-01   5.7617188e-01   5.7617188e-01   5.7617188e-01   5.7617188e-01   5.7617188e-01   5.7128906e-01   5.7128906e-01   5.7128906e-01   5.7128906e-01   5.6640625e-01   5.6640625e-01   5.6640625e-01   5.6640625e-01   5.6640625e-01   5.6640625e-01   5.6640625e-01   5.6640625e-01   5.7128906e-01   5.7617188e-01   5.8105469e-01   5.9082031e-01   5.9570312e-01   6.0546875e-01   6.1035156e-01   6.2500000e-01   6.3476562e-01   6.3964844e-01   6.4453125e-01   6.5429688e-01   6.5917969e-01   6.6406250e-01   6.6894531e-01   6.7382812e-01   6.7871094e-01   6.7871094e-01   6.8359375e-01   6.8359375e-01   6.8359375e-01   6.8359375e-01   6.8359375e-01   6.8359375e-01   6.8359375e-01   6.7871094e-01   6.7871094e-01   6.7382812e-01   6.6894531e-01   6.6894531e-01   6.6406250e-01   6.5917969e-01   6.5917969e-01   6.5429688e-01   6.4941406e-01   6.4941406e-01   6.4941406e-01   6.4941406e-01   6.4453125e-01   6.3964844e-01   6.3964844e-01   6.3476562e-01   6.3476562e-01   6.3476562e-01   6.2988281e-01   6.2988281e-01   6.2988281e-01   6.2500000e-01   6.2500000e-01   6.2011719e-01   6.1523438e-01   6.1523438e-01   6.1035156e-01   6.1035156e-01   6.0546875e-01   6.0058594e-01   6.0058594e-01   5.9570312e-01   5.9570312e-01   5.9570312e-01   5.9082031e-01   5.9082031e-01   5.8593750e-01   5.8593750e-01   5.9082031e-01   5.8593750e-01   5.8593750e-01   5.8105469e-01   5.8105469e-01   5.8105469e-01   5.8105469e-01   5.8105469e-01   5.8105469e-01   5.7617188e-01   5.7617188e-01   5.7617188e-01   5.7128906e-01   5.7128906e-01   5.7128906e-01   5.6640625e-01   5.6640625e-01   5.6152344e-01   5.6152344e-01   5.5664062e-01   5.5175781e-01   5.5175781e-01   5.5175781e-01   5.4687500e-01   5.4687500e-01   5.4199219e-01   5.4199219e-01   5.4199219e-01   5.3710938e-01   5.3710938e-01   5.4199219e-01   5.4199219e-01   5.5175781e-01   5.5664062e-01   5.6640625e-01   5.7128906e-01   5.8593750e-01   5.9570312e-01   6.0058594e-01   6.1035156e-01   6.2011719e-01   6.2500000e-01   6.3476562e-01   6.3964844e-01   6.4453125e-01   6.4941406e-01   6.4941406e-01   6.5429688e-01   6.5917969e-01   6.5917969e-01   6.5917969e-01   6.6406250e-01   6.6406250e-01   6.6406250e-01   6.6406250e-01   6.6406250e-01   6.5917969e-01   6.5917969e-01   6.5917969e-01   6.5917969e-01   6.5429688e-01   6.5429688e-01   6.5429688e-01   6.4941406e-01   6.4941406e-01   6.4941406e-01   6.4453125e-01   6.4453125e-01   6.4453125e-01   6.4453125e-01   6.3964844e-01   6.4453125e-01   6.3964844e-01   6.3964844e-01   6.3964844e-01   6.3476562e-01   6.3476562e-01   6.3476562e-01   6.2988281e-01   6.3476562e-01   6.2988281e-01   6.2988281e-01   6.2988281e-01   6.2500000e-01   6.2011719e-01   6.2011719e-01   6.2011719e-01   6.2011719e-01   6.2011719e-01   6.2011719e-01   6.2500000e-01   6.2988281e-01   6.2988281e-01   6.2988281e-01   6.2988281e-01   6.2988281e-01   6.2988281e-01   6.2988281e-01   6.2988281e-01   6.2988281e-01   6.2500000e-01   6.2988281e-01   6.2500000e-01   6.2500000e-01   6.2011719e-01   6.2011719e-01   6.1523438e-01   6.1523438e-01   6.1035156e-01   6.1035156e-01   6.0546875e-01   6.0546875e-01   6.0546875e-01   6.0546875e-01   6.0546875e-01   6.1035156e-01   6.1523438e-01   6.2011719e-01   6.2988281e-01   6.3964844e-01   6.4453125e-01   6.5429688e-01   6.5917969e-01   6.6406250e-01   6.6894531e-01   6.7382812e-01   6.7871094e-01   6.8359375e-01   6.8359375e-01   6.8847656e-01   6.8847656e-01   6.8847656e-01   6.9335938e-01   6.9335938e-01   6.9335938e-01   6.9335938e-01   6.8847656e-01   6.8847656e-01   6.8847656e-01   6.8359375e-01   6.7871094e-01   6.7871094e-01   6.6894531e-01   6.6894531e-01   6.6894531e-01   6.6406250e-01   6.5917969e-01   6.5917969e-01   6.5429688e-01   6.5429688e-01   6.5429688e-01   6.5429688e-01   6.4941406e-01   6.4941406e-01   6.4453125e-01   6.4453125e-01   6.4453125e-01   6.4453125e-01   6.4453125e-01   6.3964844e-01   6.3964844e-01   6.3476562e-01   6.3476562e-01   6.3476562e-01   6.3476562e-01   6.2988281e-01   6.2988281e-01   6.2500000e-01   6.2011719e-01   6.2011719e-01   6.1523438e-01   6.1523438e-01   6.1035156e-01   6.1035156e-01   6.0546875e-01   6.0546875e-01   6.0058594e-01   6.0058594e-01   5.9570312e-01   5.9570312e-01   5.9082031e-01   5.8593750e-01   5.8593750e-01   5.8593750e-01   5.8105469e-01   5.8105469e-01   5.8105469e-01   5.7617188e-01   5.7617188e-01   5.7128906e-01   5.7128906e-01   5.7128906e-01   5.6640625e-01   5.6640625e-01   5.6640625e-01   5.6152344e-01   5.6152344e-01   5.6152344e-01   5.5664062e-01   5.5664062e-01   5.5664062e-01   5.5664062e-01   5.6152344e-01   5.7128906e-01   5.7617188e-01   5.8593750e-01   5.9570312e-01   6.0546875e-01   6.1523438e-01   6.2500000e-01   6.3476562e-01   6.4453125e-01   6.5429688e-01   6.5917969e-01   6.6894531e-01   6.7382812e-01   6.7871094e-01   6.8359375e-01   6.9335938e-01   6.9335938e-01   6.9824219e-01   7.0312500e-01   7.0312500e-01   7.0800781e-01   7.0800781e-01   7.0800781e-01   7.0800781e-01   7.0800781e-01   7.0800781e-01   7.0312500e-01   6.9824219e-01   6.9335938e-01   6.9335938e-01   6.8847656e-01   6.8359375e-01   6.7871094e-01   6.7871094e-01   6.7382812e-01   6.6894531e-01   6.6894531e-01   6.6406250e-01   6.5917969e-01   6.5917969e-01   6.5429688e-01   6.5429688e-01   6.4941406e-01   6.4941406e-01   6.4941406e-01   6.4941406e-01   6.4941406e-01   6.4941406e-01   6.4941406e-01   6.4941406e-01   6.4941406e-01   6.4941406e-01   6.4941406e-01   6.4941406e-01   6.4941406e-01   6.4941406e-01   6.4941406e-01   6.4941406e-01   6.4941406e-01   6.4941406e-01   6.4453125e-01   6.4453125e-01   6.4453125e-01   6.3964844e-01   6.3964844e-01   6.3964844e-01   6.3964844e-01   6.3476562e-01   6.3476562e-01   6.2988281e-01   6.2988281e-01   6.2988281e-01   6.2500000e-01   6.2500000e-01   6.2500000e-01   6.2011719e-01   6.2011719e-01   6.1523438e-01   6.1523438e-01   6.1035156e-01   6.0546875e-01   6.0546875e-01   6.0058594e-01   6.0058594e-01   6.0058594e-01   6.0058594e-01   6.0058594e-01   6.0546875e-01   6.1035156e-01   6.2011719e-01   6.2988281e-01   6.3476562e-01   6.4453125e-01   6.5917969e-01   6.6894531e-01   6.7871094e-01   6.8359375e-01   6.9335938e-01   6.9824219e-01   7.0312500e-01   7.1289062e-01   7.1777344e-01   7.2265625e-01   7.2753906e-01   7.2753906e-01   7.3730469e-01   7.3242188e-01   7.3730469e-01   7.3730469e-01   7.3730469e-01   7.3730469e-01   7.3730469e-01   7.3730469e-01   7.3730469e-01   7.2753906e-01   7.2753906e-01   7.2265625e-01   7.2265625e-01   7.1777344e-01   7.1289062e-01   7.0800781e-01   7.0800781e-01   6.9824219e-01   6.9824219e-01   6.9335938e-01   6.8847656e-01   6.8847656e-01   6.8359375e-01   6.8359375e-01   6.7871094e-01   6.7871094e-01   6.7382812e-01   6.7382812e-01   6.6894531e-01   6.6894531e-01   6.6406250e-01   6.6406250e-01   6.5917969e-01   6.5917969e-01   6.5429688e-01   6.4941406e-01   6.4453125e-01   6.3964844e-01   6.3476562e-01   6.2988281e-01   6.2500000e-01   6.2011719e-01   6.1523438e-01   6.0546875e-01   6.0058594e-01   5.9570312e-01   5.9082031e-01   5.8593750e-01   5.7617188e-01   5.7128906e-01   5.6640625e-01   5.5664062e-01   5.4687500e-01   5.4687500e-01   5.3710938e-01   5.2734375e-01   5.2246094e-01   5.1757812e-01   5.1269531e-01   5.0781250e-01   5.0292969e-01   4.9804688e-01   4.9316406e-01   4.9316406e-01   4.9804688e-01   4.9804688e-01   5.0781250e-01   5.1757812e-01   5.2734375e-01   5.3710938e-01   5.4687500e-01   5.5664062e-01   5.7128906e-01   5.7617188e-01   5.9082031e-01   6.0058594e-01   6.0546875e-01   6.1035156e-01   6.1523438e-01   6.2500000e-01   6.2988281e-01   6.3476562e-01   6.3964844e-01   6.3964844e-01   6.3964844e-01   6.4453125e-01   6.3964844e-01   6.4453125e-01   6.3964844e-01   6.2988281e-01   6.2988281e-01   6.2011719e-01   6.1523438e-01   6.1035156e-01   6.0058594e-01   6.0058594e-01   5.9082031e-01   5.8593750e-01   5.8593750e-01   5.8105469e-01   5.7617188e-01   5.7617188e-01   5.7128906e-01   5.6640625e-01   5.6152344e-01   5.5664062e-01   5.5175781e-01   5.4687500e-01   5.4199219e-01   5.4199219e-01   5.3222656e-01   5.2734375e-01   5.2734375e-01   5.1757812e-01   5.1757812e-01   5.1269531e-01   5.1269531e-01   5.1269531e-01   5.0781250e-01   5.0781250e-01   5.0292969e-01   5.0781250e-01   5.0781250e-01   5.0292969e-01   5.0292969e-01   5.0781250e-01   5.0292969e-01   5.0292969e-01   5.0292969e-01   5.0292969e-01   5.0292969e-01   5.0292969e-01   5.0292969e-01   5.0292969e-01   5.0292969e-01   4.9804688e-01   5.0292969e-01   4.9804688e-01   5.0292969e-01   5.0292969e-01   4.9804688e-01   5.0292969e-01   5.0292969e-01   5.1269531e-01   5.1757812e-01   5.2734375e-01   5.3710938e-01   5.5175781e-01   5.5664062e-01   5.7128906e-01   5.8105469e-01   5.9082031e-01   6.0546875e-01   6.1035156e-01   6.2011719e-01   6.2988281e-01   6.3476562e-01   6.3964844e-01   6.4453125e-01   6.4941406e-01   6.5429688e-01   6.5429688e-01   6.5917969e-01   6.6406250e-01   6.6894531e-01   6.6894531e-01   6.7382812e-01   6.7382812e-01   6.7382812e-01   6.7382812e-01   6.7382812e-01   6.7382812e-01   6.7382812e-01   6.7382812e-01   6.6894531e-01   6.6894531e-01   6.6894531e-01   6.6406250e-01   6.6406250e-01   6.6406250e-01   6.6406250e-01   6.5917969e-01   6.5917969e-01   6.5917969e-01   6.5917969e-01   6.5917969e-01   6.5429688e-01   6.5429688e-01   6.5429688e-01   6.4941406e-01   6.4941406e-01   6.4941406e-01   6.4941406e-01   6.4941406e-01   6.4941406e-01   6.4941406e-01   6.4941406e-01   6.4941406e-01   6.4941406e-01   6.4941406e-01   6.4941406e-01   6.4941406e-01   6.4941406e-01   6.4941406e-01   6.4453125e-01   6.3964844e-01   6.3476562e-01   6.2988281e-01   6.2500000e-01   6.2011719e-01   6.1035156e-01   6.0546875e-01   6.0058594e-01   5.9570312e-01   5.8593750e-01   5.8105469e-01   5.7617188e-01   5.7128906e-01   5.6640625e-01   5.6640625e-01   5.6152344e-01   5.6152344e-01   5.6640625e-01   5.7128906e-01   5.7617188e-01   5.8105469e-01   5.9082031e-01   5.9570312e-01   6.0546875e-01   6.1035156e-01   6.1523438e-01   6.2011719e-01   6.2988281e-01   6.3476562e-01   6.4453125e-01   6.4941406e-01   6.5429688e-01   6.5917969e-01   6.6406250e-01   6.6894531e-01   6.7382812e-01   6.7871094e-01   6.8359375e-01   6.8847656e-01   6.8847656e-01   6.8847656e-01   6.8847656e-01   6.8847656e-01   6.8359375e-01   6.8359375e-01   6.8359375e-01   6.7871094e-01   6.7871094e-01   6.7382812e-01   6.6894531e-01   6.6894531e-01   6.6406250e-01   6.5917969e-01   6.5917969e-01   6.5429688e-01   6.5429688e-01   6.4941406e-01   6.4941406e-01   6.4941406e-01   6.4941406e-01   6.4941406e-01   6.4941406e-01   6.4941406e-01   6.4941406e-01   6.4941406e-01   6.5429688e-01   6.5429688e-01   6.5429688e-01   6.5429688e-01   6.4941406e-01   6.4941406e-01   6.4941406e-01   6.4453125e-01   6.4453125e-01   6.3476562e-01   6.3476562e-01   6.2988281e-01   6.2500000e-01   6.2011719e-01   6.1523438e-01   6.0546875e-01   6.0546875e-01   6.0058594e-01   5.9570312e-01   5.9082031e-01   5.9082031e-01   5.8593750e-01   5.9082031e-01   5.8593750e-01   5.9082031e-01   5.9082031e-01   5.9082031e-01   5.9082031e-01   5.9570312e-01   5.9570312e-01   6.0546875e-01   6.1035156e-01   6.1523438e-01   6.2011719e-01   6.2988281e-01   6.3476562e-01   6.3964844e-01   6.4453125e-01   6.4941406e-01   6.5429688e-01   6.5917969e-01   6.5917969e-01   6.6894531e-01   6.6894531e-01   6.7382812e-01   6.7382812e-01   6.8359375e-01   6.8847656e-01   6.9335938e-01   6.9824219e-01   6.9824219e-01   7.0312500e-01   7.0800781e-01   7.0800781e-01   7.0800781e-01   7.0800781e-01   7.0800781e-01   7.1289062e-01   7.0800781e-01   7.0800781e-01   7.0800781e-01   7.0312500e-01   7.0312500e-01   6.9824219e-01   6.9335938e-01   6.9335938e-01   6.8847656e-01   6.8359375e-01   6.7871094e-01   6.7382812e-01   6.6894531e-01   6.6406250e-01   6.6406250e-01   6.5917969e-01   6.5429688e-01   6.4941406e-01   6.4453125e-01   6.3964844e-01   6.3964844e-01   6.2988281e-01   6.2988281e-01   6.2500000e-01   6.2011719e-01   6.1523438e-01   6.1035156e-01   6.0546875e-01   6.0058594e-01   5.9082031e-01   5.8593750e-01   5.8105469e-01   5.7128906e-01   5.6640625e-01   5.5664062e-01   5.4687500e-01   5.4199219e-01   5.3222656e-01   5.2734375e-01   5.2246094e-01   5.1269531e-01   5.0781250e-01   5.0292969e-01   4.9804688e-01   4.9316406e-01   4.8828125e-01   4.8339844e-01   4.7851562e-01   4.7851562e-01   4.7363281e-01   4.7363281e-01   4.6875000e-01   4.7363281e-01   4.7363281e-01   4.7851562e-01   4.8828125e-01   4.9804688e-01   5.1269531e-01   5.2246094e-01   5.3710938e-01   5.5175781e-01   5.6640625e-01   5.7617188e-01   5.9570312e-01   6.0546875e-01   6.1523438e-01   6.2500000e-01   6.3476562e-01   6.3964844e-01   6.4453125e-01   6.5429688e-01   6.5429688e-01   6.5917969e-01   6.6406250e-01   6.6406250e-01   6.6406250e-01   6.6894531e-01   6.6406250e-01   6.6894531e-01   6.6406250e-01   6.5917969e-01   6.5917969e-01   6.5429688e-01   6.4941406e-01   6.4453125e-01   6.4453125e-01   6.3964844e-01   6.3964844e-01   6.3476562e-01   6.2988281e-01   6.2988281e-01   6.2500000e-01   6.2011719e-01   6.2011719e-01   6.2011719e-01   6.1523438e-01   6.1035156e-01   6.1035156e-01   6.1035156e-01   6.0546875e-01   6.0546875e-01   6.0058594e-01   6.0058594e-01   6.0058594e-01   6.0058594e-01   5.9570312e-01   5.9570312e-01   5.9082031e-01   5.9082031e-01   5.8593750e-01   5.8593750e-01   5.8105469e-01   5.8105469e-01   5.8105469e-01   5.8105469e-01   5.7617188e-01   5.7617188e-01   5.7617188e-01   5.7128906e-01   5.7128906e-01   5.7128906e-01   5.7128906e-01   5.6640625e-01   5.6640625e-01   5.6152344e-01   5.6152344e-01   5.6152344e-01   5.6152344e-01   5.6152344e-01   5.6152344e-01   5.6640625e-01   5.7128906e-01   5.8105469e-01   5.8593750e-01   6.0058594e-01   6.0546875e-01   6.1523438e-01   6.2988281e-01   6.3476562e-01   6.3964844e-01   6.4941406e-01   6.5429688e-01   6.5917969e-01   6.6894531e-01   6.6894531e-01   6.7382812e-01   6.7382812e-01   6.7871094e-01   6.7871094e-01   6.8359375e-01   6.8359375e-01   6.7871094e-01   6.7871094e-01   6.7871094e-01   6.7382812e-01   6.7382812e-01   6.6894531e-01   6.6406250e-01   6.6406250e-01   6.5917969e-01   6.5917969e-01   6.5917969e-01   6.5429688e-01   6.4941406e-01   6.4941406e-01   6.4453125e-01   6.4453125e-01   6.3964844e-01   6.3964844e-01   6.3476562e-01   6.3476562e-01   6.2988281e-01   6.2988281e-01   6.2988281e-01   6.2500000e-01   6.2500000e-01   6.2500000e-01   6.2011719e-01   6.2011719e-01   6.2011719e-01   6.1523438e-01   6.1523438e-01   6.1035156e-01   6.0546875e-01   6.0546875e-01   6.0546875e-01   6.0058594e-01   5.9570312e-01   5.9082031e-01   5.9082031e-01   5.9082031e-01   5.8593750e-01   5.8105469e-01   5.8105469e-01   5.7617188e-01   5.7617188e-01   5.7128906e-01   5.7128906e-01   5.7128906e-01   5.6640625e-01   5.6640625e-01   5.6152344e-01   5.6152344e-01   5.6152344e-01   5.6152344e-01   5.7128906e-01   5.7617188e-01   5.8105469e-01   5.8593750e-01   6.0058594e-01   6.0546875e-01   6.1523438e-01   6.2011719e-01   6.2988281e-01   6.3964844e-01   6.4453125e-01   6.4941406e-01   6.5917969e-01   6.6406250e-01   6.6894531e-01   6.7382812e-01   6.7871094e-01   6.7871094e-01   6.8359375e-01   6.8359375e-01   6.8847656e-01   6.8847656e-01   6.8847656e-01   6.8847656e-01   6.8847656e-01   6.8359375e-01   6.8359375e-01   6.8359375e-01   6.8359375e-01   6.7871094e-01   6.7382812e-01   6.6894531e-01   6.6894531e-01   6.6894531e-01   6.6406250e-01   6.5917969e-01   6.5917969e-01   6.5429688e-01   6.5429688e-01   6.4941406e-01   6.4941406e-01   6.4941406e-01   6.4453125e-01   6.4453125e-01   6.4453125e-01   6.3964844e-01   6.3964844e-01   6.3476562e-01   6.3476562e-01   6.3476562e-01   6.2988281e-01   6.2988281e-01   6.2988281e-01   6.2500000e-01   6.2500000e-01   6.2011719e-01   6.2011719e-01   6.1523438e-01   6.1523438e-01   6.1035156e-01   6.1035156e-01   6.0546875e-01   6.0546875e-01   6.0058594e-01   6.0058594e-01   6.0058594e-01   5.9570312e-01   5.9570312e-01   5.9082031e-01   5.9082031e-01   5.9082031e-01   5.8593750e-01   5.9082031e-01   5.8593750e-01   5.9082031e-01   5.9082031e-01   6.0058594e-01   6.0546875e-01   6.1523438e-01   6.2011719e-01   6.2988281e-01   6.3964844e-01   6.4941406e-01   6.5917969e-01   6.6894531e-01   6.7382812e-01   6.8359375e-01   6.8847656e-01   6.9824219e-01   7.0312500e-01   7.0800781e-01   7.1289062e-01   7.1777344e-01   7.2265625e-01   7.2265625e-01   7.2265625e-01   7.2753906e-01   7.2753906e-01   7.2753906e-01   7.2265625e-01   7.2265625e-01   7.2265625e-01   7.1777344e-01   7.1289062e-01   7.1289062e-01   7.0800781e-01   7.0312500e-01   6.9824219e-01   6.9824219e-01   6.9335938e-01   6.8847656e-01   6.8359375e-01   6.8359375e-01   6.7871094e-01   6.7382812e-01   6.7382812e-01   6.6894531e-01   6.6894531e-01   6.6406250e-01   6.5917969e-01   6.5917969e-01   6.5429688e-01   6.5429688e-01   6.4941406e-01   6.4453125e-01   6.4453125e-01   6.3964844e-01   6.3964844e-01   6.3476562e-01   6.3476562e-01   6.2988281e-01   6.2988281e-01   6.2988281e-01   6.2500000e-01   6.2500000e-01   6.2011719e-01   6.2011719e-01   6.2011719e-01   6.1523438e-01   6.1523438e-01   6.1035156e-01   6.1035156e-01   6.1035156e-01   6.1035156e-01   6.0546875e-01   6.0546875e-01   6.0058594e-01   6.0058594e-01   5.9570312e-01   5.9570312e-01   5.9082031e-01   5.8593750e-01   5.9082031e-01   5.9082031e-01   5.9570312e-01   6.0058594e-01   6.0546875e-01   6.1035156e-01   6.2011719e-01   6.3476562e-01   6.3964844e-01   6.4941406e-01   6.5917969e-01   6.6894531e-01   6.7382812e-01   6.7871094e-01   6.8847656e-01   6.9335938e-01   6.9824219e-01   6.9824219e-01   7.0312500e-01   7.0800781e-01   7.0800781e-01   7.0312500e-01   7.0800781e-01   7.0800781e-01   7.0800781e-01   7.0800781e-01   7.0312500e-01   7.0312500e-01   6.9824219e-01   6.9335938e-01   6.9335938e-01   6.8359375e-01   6.8359375e-01   6.7382812e-01   6.6894531e-01   6.6406250e-01   6.5917969e-01   6.5917969e-01   6.5429688e-01   6.4453125e-01   6.4453125e-01   6.3476562e-01   6.3476562e-01   6.2988281e-01   6.2988281e-01   6.2500000e-01   6.2011719e-01   6.1523438e-01   6.1035156e-01   6.0058594e-01   5.9570312e-01   5.9570312e-01   5.9082031e-01   5.8593750e-01   5.8105469e-01   5.7617188e-01   5.7617188e-01   5.7128906e-01   5.6640625e-01   5.6152344e-01   5.5664062e-01   5.5664062e-01   5.5175781e-01   5.5175781e-01   5.4687500e-01   5.4687500e-01   5.4687500e-01   5.4687500e-01   5.4199219e-01   5.4199219e-01   5.4199219e-01   5.4199219e-01   5.3710938e-01   5.3710938e-01   5.3710938e-01   5.3222656e-01   5.3222656e-01   5.2734375e-01   5.2734375e-01   5.2734375e-01   5.2246094e-01   5.2246094e-01   5.3222656e-01   5.3710938e-01   5.4199219e-01   5.5175781e-01   5.6152344e-01   5.7128906e-01   5.8105469e-01   5.9082031e-01   6.0058594e-01   6.0546875e-01   6.1523438e-01   6.2500000e-01   6.2988281e-01   6.3476562e-01   6.3964844e-01   6.4453125e-01   6.4941406e-01   6.5429688e-01   6.5429688e-01   6.5917969e-01   6.5917969e-01   6.5917969e-01   6.5917969e-01   6.5429688e-01   6.5429688e-01   6.5429688e-01   6.5429688e-01   6.4941406e-01   6.4941406e-01   6.4453125e-01   6.4453125e-01   6.3964844e-01   6.3476562e-01   6.3476562e-01   6.2988281e-01   6.2988281e-01   6.2500000e-01   6.2011719e-01   6.2011719e-01   6.1523438e-01   6.1523438e-01   6.1523438e-01   6.1035156e-01   6.0546875e-01   6.0058594e-01   6.0058594e-01   6.0058594e-01   5.9570312e-01   5.9570312e-01   5.9082031e-01   5.8593750e-01   5.8593750e-01   5.8593750e-01   5.8593750e-01   5.8105469e-01   5.7617188e-01   5.7617188e-01   5.7128906e-01   5.7128906e-01   5.7128906e-01   5.6640625e-01   5.6640625e-01   5.6640625e-01   5.6152344e-01   5.6152344e-01   5.5664062e-01   5.5664062e-01   5.5664062e-01   5.5175781e-01   5.5175781e-01   5.5664062e-01   5.5175781e-01   5.4687500e-01   5.4687500e-01   5.4687500e-01   5.4687500e-01   5.4199219e-01   5.4199219e-01   5.4199219e-01   5.3710938e-01   5.3710938e-01   5.3710938e-01   5.4199219e-01   5.5175781e-01   5.5664062e-01   5.6640625e-01   5.7617188e-01   5.8593750e-01   6.0058594e-01   6.1035156e-01   6.2011719e-01   6.2988281e-01   6.3964844e-01   6.4453125e-01   6.5429688e-01   6.5429688e-01   6.6406250e-01   6.6894531e-01   6.6894531e-01   6.7382812e-01   6.7871094e-01   6.7382812e-01   6.7871094e-01   6.7871094e-01   6.7871094e-01   6.7871094e-01   6.7382812e-01   6.7382812e-01   6.6894531e-01   6.6894531e-01   6.6894531e-01   6.6406250e-01   6.6406250e-01   6.5917969e-01   6.5429688e-01   6.5429688e-01   6.4941406e-01   6.4941406e-01   6.4941406e-01   6.4453125e-01   6.4453125e-01   6.4453125e-01   6.3964844e-01   6.3964844e-01   6.3476562e-01   6.3476562e-01   6.3476562e-01   6.3476562e-01   6.3476562e-01   6.2988281e-01   6.2988281e-01   6.2500000e-01   6.2011719e-01   6.2011719e-01   6.1523438e-01   6.1035156e-01   6.1035156e-01   6.0546875e-01   6.0058594e-01   5.9570312e-01   5.9570312e-01   5.9082031e-01   5.8593750e-01   5.8593750e-01   5.8593750e-01   5.8105469e-01   5.8105469e-01   5.7617188e-01   5.7128906e-01   5.7128906e-01   5.6640625e-01   5.6640625e-01   5.6152344e-01   5.6152344e-01   5.5664062e-01   5.5175781e-01   5.5175781e-01   5.5175781e-01   5.5175781e-01   5.5175781e-01   5.5664062e-01   5.6640625e-01   5.7128906e-01   5.8105469e-01   5.9082031e-01   6.0058594e-01   6.1035156e-01   6.2011719e-01   6.2988281e-01   6.3964844e-01   6.4453125e-01   6.5429688e-01   6.5917969e-01   6.6406250e-01   6.6894531e-01   6.7382812e-01   6.7871094e-01   6.7871094e-01   6.8359375e-01   6.8359375e-01   6.8847656e-01   6.8847656e-01   6.8847656e-01   6.8847656e-01   6.8847656e-01   6.8847656e-01   6.8359375e-01   6.8359375e-01   6.8359375e-01   6.7871094e-01   6.7871094e-01   6.7382812e-01   6.7382812e-01   6.6894531e-01   6.6894531e-01   6.6894531e-01   6.6406250e-01   6.6406250e-01   6.5917969e-01   6.5429688e-01   6.5429688e-01   6.4941406e-01   6.4941406e-01   6.4453125e-01   6.4453125e-01   6.3964844e-01   6.3476562e-01   6.2988281e-01   6.2988281e-01   6.2500000e-01   6.2011719e-01   6.1523438e-01   6.1035156e-01   6.0546875e-01   6.0058594e-01   6.0058594e-01   5.9082031e-01   5.8593750e-01   5.8105469e-01   5.8105469e-01   5.7128906e-01   5.7128906e-01   5.6640625e-01   5.6152344e-01   5.6152344e-01   5.5664062e-01   5.5664062e-01   5.5175781e-01   5.4687500e-01   5.4199219e-01   5.4199219e-01   5.3710938e-01   5.3710938e-01   5.3222656e-01   5.2734375e-01   5.2734375e-01   5.2734375e-01   5.2734375e-01   5.2246094e-01   5.2734375e-01   5.3222656e-01   5.4199219e-01   5.4687500e-01   5.6152344e-01   5.6640625e-01   5.7617188e-01   5.9082031e-01   5.9570312e-01   6.1035156e-01   6.2011719e-01   6.2988281e-01   6.3476562e-01   6.3964844e-01   6.4941406e-01   6.5429688e-01   6.5917969e-01   6.6406250e-01   6.6894531e-01   6.7382812e-01   6.7382812e-01   6.7382812e-01   6.7871094e-01   6.7871094e-01   6.7382812e-01   6.7871094e-01   6.7382812e-01   6.7382812e-01   6.6894531e-01   6.6406250e-01   6.6406250e-01   6.5917969e-01   6.5917969e-01   6.5429688e-01   6.5429688e-01   6.5429688e-01   6.4941406e-01   6.4941406e-01   6.4941406e-01   6.4453125e-01   6.4453125e-01   6.4453125e-01   6.3964844e-01   6.3964844e-01   6.3964844e-01   6.3476562e-01   6.3476562e-01   6.3476562e-01   6.3476562e-01   6.3476562e-01   6.2988281e-01   6.2988281e-01   6.2988281e-01   6.2011719e-01   6.2011719e-01   6.2011719e-01   6.1523438e-01   6.2011719e-01   6.1035156e-01   6.1035156e-01   6.1035156e-01   6.0546875e-01   6.0546875e-01   6.0058594e-01   5.9570312e-01   6.0058594e-01   5.9570312e-01   5.9570312e-01   5.9082031e-01   5.9082031e-01   5.9082031e-01   5.8593750e-01   5.8593750e-01   5.8105469e-01   5.8105469e-01   5.8105469e-01   5.8105469e-01   5.7617188e-01   5.8105469e-01   5.8105469e-01   5.8593750e-01   5.9082031e-01   5.9570312e-01   6.0546875e-01   6.1523438e-01   6.2500000e-01   6.2988281e-01   6.3964844e-01   6.4941406e-01   6.5917969e-01   6.6406250e-01   6.7382812e-01   6.7871094e-01   6.7871094e-01   6.8359375e-01   6.8359375e-01   6.8847656e-01   6.8847656e-01   6.8847656e-01   6.9335938e-01   6.8847656e-01   6.8847656e-01   6.8847656e-01   6.8847656e-01   6.8359375e-01   6.8359375e-01   6.7871094e-01   6.7871094e-01   6.7871094e-01   6.7382812e-01   6.6894531e-01   6.6894531e-01   6.6894531e-01   6.6894531e-01   6.6406250e-01   6.6406250e-01   6.5917969e-01   6.5917969e-01   6.5917969e-01   6.5917969e-01   6.6406250e-01   6.5917969e-01   6.5917969e-01   6.5917969e-01   6.5429688e-01   6.5429688e-01   6.5429688e-01   6.4941406e-01   6.4453125e-01   6.4453125e-01   6.3964844e-01   6.3964844e-01   6.3476562e-01   6.3476562e-01   6.2988281e-01   6.2988281e-01   6.2500000e-01   6.2011719e-01   6.2011719e-01   6.2011719e-01   6.1523438e-01   6.1035156e-01   6.0546875e-01   6.0546875e-01   6.0058594e-01   6.0058594e-01   5.9570312e-01   5.9570312e-01   5.9082031e-01   5.8593750e-01   5.8593750e-01   5.8105469e-01   5.8105469e-01   5.7617188e-01   5.7128906e-01   5.7128906e-01   5.6640625e-01   5.6640625e-01   5.6152344e-01   5.5664062e-01   5.6152344e-01   5.6152344e-01   5.6640625e-01   5.7128906e-01   5.8105469e-01   5.8593750e-01   5.9570312e-01   6.0058594e-01   6.1035156e-01   6.2011719e-01   6.2988281e-01   6.3964844e-01   6.4941406e-01   6.5429688e-01   6.5917969e-01   6.6406250e-01   6.6894531e-01   6.7382812e-01   6.8359375e-01   6.8359375e-01   6.8847656e-01   6.8847656e-01   6.9335938e-01   6.8847656e-01   6.9335938e-01   6.8847656e-01   6.8847656e-01   6.8847656e-01   6.8847656e-01   6.8847656e-01   6.8359375e-01   6.7871094e-01   6.7871094e-01   6.7382812e-01   6.7382812e-01   6.6894531e-01   6.6894531e-01   6.6406250e-01   6.6406250e-01   6.5917969e-01   6.5429688e-01   6.5429688e-01   6.5429688e-01   6.5429688e-01   6.4941406e-01   6.4453125e-01   6.4453125e-01   6.3964844e-01   6.3964844e-01   6.3476562e-01   6.2988281e-01   6.2988281e-01   6.2500000e-01   6.2500000e-01   6.2011719e-01   6.1523438e-01   6.1523438e-01   6.1035156e-01   6.0546875e-01   6.0058594e-01   6.0058594e-01   5.9570312e-01   5.9082031e-01   5.9082031e-01   5.9082031e-01   5.8593750e-01   5.8593750e-01   5.8105469e-01   5.8105469e-01   5.8105469e-01   5.7617188e-01   5.7617188e-01   5.7617188e-01   5.7128906e-01   5.7128906e-01   5.7128906e-01   5.7128906e-01   5.6640625e-01   5.6640625e-01   5.7128906e-01   5.6640625e-01   5.6640625e-01   5.6640625e-01   5.6640625e-01   5.6640625e-01   5.6640625e-01   5.6640625e-01   5.6640625e-01   5.6640625e-01   5.7128906e-01   5.8105469e-01   5.8593750e-01   5.9570312e-01   6.1035156e-01   6.2011719e-01   6.2988281e-01   6.3964844e-01   6.4941406e-01   6.5429688e-01   6.6406250e-01   6.6894531e-01   6.7871094e-01   6.8359375e-01   6.8847656e-01   6.9335938e-01   6.9824219e-01   7.0312500e-01   7.0312500e-01   7.0800781e-01   7.0800781e-01   7.0800781e-01   7.0312500e-01   7.0312500e-01   6.9824219e-01   6.9824219e-01   6.8847656e-01   6.8359375e-01   6.8359375e-01   6.7871094e-01   6.6894531e-01   6.6894531e-01   6.5917969e-01   6.5917969e-01   6.5429688e-01   6.4941406e-01   6.4453125e-01   6.3964844e-01   6.3964844e-01   6.3476562e-01   6.2988281e-01   6.2500000e-01   6.2011719e-01   6.2011719e-01   6.1523438e-01   6.1035156e-01   6.1035156e-01   6.0546875e-01   6.0058594e-01   5.9570312e-01   5.9570312e-01   5.9082031e-01   5.8593750e-01   5.8105469e-01   5.8105469e-01   5.7617188e-01   5.7128906e-01   5.7128906e-01   5.6640625e-01   5.6640625e-01   5.6152344e-01   5.6152344e-01   5.5175781e-01   5.5175781e-01   5.5175781e-01   5.4687500e-01   5.4687500e-01   5.4687500e-01   5.4687500e-01   5.4199219e-01   5.3710938e-01   5.4199219e-01   5.4199219e-01   5.3710938e-01   5.3222656e-01   5.3710938e-01   5.3222656e-01   5.3222656e-01   5.3222656e-01   5.2734375e-01   5.3222656e-01   5.3222656e-01   5.3710938e-01   5.3710938e-01   5.4687500e-01   5.5664062e-01   5.6640625e-01   5.7128906e-01   5.8105469e-01   5.9570312e-01   6.0058594e-01   6.0546875e-01   6.1523438e-01   6.2500000e-01   6.2988281e-01   6.3964844e-01   6.4453125e-01   6.4941406e-01   6.4941406e-01   6.5917969e-01   6.5917969e-01   6.6406250e-01   6.6894531e-01   6.6894531e-01   6.6894531e-01   6.6894531e-01   6.6894531e-01   6.6894531e-01   6.6894531e-01   6.6406250e-01   6.6406250e-01   6.6406250e-01   6.5917969e-01   6.5917969e-01   6.5429688e-01   6.5429688e-01   6.4941406e-01   6.4941406e-01   6.4941406e-01   6.4941406e-01   6.4941406e-01   6.4941406e-01   6.4941406e-01   6.4941406e-01   6.4453125e-01   6.4453125e-01   6.4453125e-01   6.4453125e-01   6.3964844e-01   6.3964844e-01   6.3964844e-01   6.3476562e-01   6.3476562e-01   6.3476562e-01   6.3476562e-01   6.2988281e-01   6.2500000e-01   6.2500000e-01   6.2011719e-01   6.2011719e-01   6.1523438e-01   6.1035156e-01   6.1035156e-01   6.0546875e-01   6.0546875e-01   6.0058594e-01   6.0058594e-01   5.9570312e-01   5.9082031e-01   5.9082031e-01   5.8593750e-01   5.8593750e-01   5.8105469e-01   5.8105469e-01   5.7617188e-01   5.7128906e-01   5.7128906e-01   5.7128906e-01   5.6640625e-01   5.6640625e-01   5.6152344e-01   5.6152344e-01   5.6152344e-01   5.6152344e-01   5.6152344e-01   5.6640625e-01   5.7128906e-01   5.7128906e-01   5.8105469e-01   5.9082031e-01   5.9570312e-01   6.0546875e-01   6.1523438e-01   6.2011719e-01   6.2988281e-01   6.3964844e-01   6.4453125e-01   6.5429688e-01   6.5429688e-01   6.6406250e-01   6.6894531e-01   6.7382812e-01   6.7871094e-01   6.7871094e-01   6.8359375e-01   6.8359375e-01   6.8359375e-01   6.8359375e-01   6.8847656e-01   6.8359375e-01   6.8359375e-01   6.8359375e-01   6.8359375e-01   6.7871094e-01   6.7871094e-01   6.7871094e-01   6.7382812e-01   6.7382812e-01   6.7382812e-01   6.6894531e-01   6.6894531e-01   6.6894531e-01   6.6406250e-01   6.6406250e-01   6.5917969e-01   6.5429688e-01   6.5429688e-01   6.4941406e-01   6.4941406e-01   6.4453125e-01   6.3964844e-01   6.3476562e-01   6.2988281e-01   6.2988281e-01   6.2500000e-01   6.2011719e-01   6.1523438e-01   6.1035156e-01   6.0058594e-01   6.0058594e-01   5.9570312e-01   5.9082031e-01   5.9082031e-01   5.8593750e-01   5.8105469e-01   5.8105469e-01   5.7617188e-01   5.7128906e-01   5.7128906e-01   5.6640625e-01   5.6640625e-01   5.6152344e-01   5.5664062e-01   5.5175781e-01   5.5175781e-01   5.4687500e-01   5.4687500e-01   5.4199219e-01   5.4199219e-01   5.3710938e-01   5.3710938e-01   5.3222656e-01   5.3222656e-01   5.2734375e-01   5.2734375e-01   5.2734375e-01   5.2734375e-01   5.2246094e-01   5.1757812e-01   5.2246094e-01   5.1757812e-01   5.2246094e-01   5.2246094e-01   5.2734375e-01   5.2734375e-01   5.3710938e-01   5.4687500e-01   5.5175781e-01   5.6152344e-01   5.6640625e-01   5.7617188e-01   5.8593750e-01   5.9082031e-01   6.0058594e-01   6.1035156e-01   6.1523438e-01   6.2011719e-01   6.2500000e-01   6.2988281e-01   6.3476562e-01   6.3964844e-01   6.3964844e-01   6.4453125e-01   6.4941406e-01   6.4941406e-01   6.5429688e-01   6.5429688e-01   6.4941406e-01   6.5429688e-01   6.4941406e-01   6.4941406e-01   6.4941406e-01   6.4453125e-01   6.4453125e-01   6.3964844e-01   6.3964844e-01   6.3476562e-01   6.3476562e-01   6.2988281e-01   6.2988281e-01   6.2988281e-01   6.2500000e-01   6.2988281e-01   6.2500000e-01   6.2500000e-01   6.2011719e-01   6.2011719e-01   6.2011719e-01   6.1523438e-01   6.1523438e-01   6.1035156e-01   6.1035156e-01   6.0546875e-01   6.0546875e-01   6.0058594e-01   6.0058594e-01   6.0058594e-01   5.9570312e-01   5.9570312e-01   5.9570312e-01   5.9082031e-01   5.9082031e-01   5.8593750e-01   5.8593750e-01   5.8593750e-01   5.8593750e-01   5.8105469e-01   5.7617188e-01   5.8105469e-01   5.7617188e-01   5.7617188e-01   5.7617188e-01   5.7128906e-01   5.7128906e-01   5.7128906e-01   5.6640625e-01   5.6640625e-01   5.6640625e-01   5.6152344e-01   5.6152344e-01   5.5664062e-01   5.6152344e-01   5.5664062e-01   5.5664062e-01   5.5664062e-01   5.5175781e-01   5.5175781e-01   5.5175781e-01   5.5175781e-01   5.5175781e-01   5.5175781e-01   5.5664062e-01   5.6152344e-01   5.6640625e-01   5.7128906e-01   5.8105469e-01   5.8593750e-01   5.9570312e-01   6.0058594e-01   6.1035156e-01   6.1523438e-01   6.2011719e-01   6.2988281e-01   6.2988281e-01   6.3476562e-01   6.4453125e-01   6.4453125e-01   6.4941406e-01   6.5429688e-01   6.5429688e-01   6.5917969e-01   6.5917969e-01   6.5917969e-01   6.5917969e-01   6.5917969e-01   6.5917969e-01   6.5917969e-01   6.5429688e-01   6.5429688e-01   6.4941406e-01   6.4941406e-01   6.4453125e-01   6.4453125e-01   6.4453125e-01   6.3964844e-01   6.3964844e-01   6.3476562e-01   6.3476562e-01   6.3476562e-01   6.3476562e-01   6.2988281e-01   6.2988281e-01   6.2988281e-01   6.2500000e-01   6.2500000e-01   6.2011719e-01   6.2011719e-01   6.2011719e-01   6.1523438e-01   6.1523438e-01   6.1035156e-01   6.1035156e-01   6.0546875e-01   6.0546875e-01   6.0058594e-01   6.0058594e-01   6.0058594e-01   5.9570312e-01   5.9570312e-01   5.9570312e-01   5.9082031e-01   5.9082031e-01   5.8593750e-01   5.8593750e-01   5.8105469e-01   5.8105469e-01   5.7617188e-01   5.7617188e-01   5.7617188e-01   5.7128906e-01   5.6640625e-01   5.6640625e-01   5.6152344e-01   5.6640625e-01   5.6152344e-01   5.5664062e-01   5.5664062e-01   5.5175781e-01   5.5175781e-01   5.5175781e-01   5.5175781e-01   5.5175781e-01   5.5175781e-01   5.5175781e-01   5.6152344e-01   5.6152344e-01   5.7128906e-01   5.7617188e-01   5.8105469e-01   5.9082031e-01   6.0058594e-01   6.0546875e-01   6.1523438e-01   6.2011719e-01   6.2988281e-01   6.3476562e-01   6.3476562e-01   6.4453125e-01   6.4941406e-01   6.5429688e-01   6.5429688e-01   6.5917969e-01   6.6406250e-01   6.6894531e-01   6.6894531e-01   6.6894531e-01   6.6894531e-01   6.6894531e-01   6.6894531e-01   6.6894531e-01   6.6894531e-01   6.6894531e-01   6.6406250e-01   6.6406250e-01   6.5917969e-01   6.5917969e-01   6.5429688e-01   6.5429688e-01   6.5429688e-01   6.5429688e-01   6.4941406e-01   6.4941406e-01   6.4941406e-01   6.4453125e-01   6.4453125e-01   6.3964844e-01   6.3964844e-01   6.3476562e-01   6.3476562e-01   6.3476562e-01   6.2988281e-01   6.2988281e-01   6.2500000e-01   6.2011719e-01   6.2011719e-01   6.2011719e-01   6.1523438e-01   6.1523438e-01   6.1035156e-01   6.0546875e-01   6.0546875e-01   5.9570312e-01   5.9570312e-01   5.9082031e-01   5.9082031e-01   5.9082031e-01   5.8105469e-01   5.7617188e-01   5.7617188e-01   5.7128906e-01   5.7128906e-01   5.7128906e-01   5.6640625e-01   5.6152344e-01   5.6152344e-01   5.5664062e-01   5.5664062e-01   5.5175781e-01   5.5175781e-01   5.4687500e-01   5.4199219e-01   5.4199219e-01   5.3710938e-01   5.3710938e-01   5.3222656e-01   5.3222656e-01   5.3222656e-01   5.3222656e-01   5.3222656e-01   5.3710938e-01   5.4199219e-01   5.4687500e-01   5.5175781e-01   5.5664062e-01   5.6640625e-01   5.7128906e-01   5.8105469e-01   5.8593750e-01   5.9082031e-01   6.0058594e-01   6.0546875e-01   6.1035156e-01   6.1523438e-01   6.2011719e-01   6.2500000e-01   6.2988281e-01   6.2988281e-01   6.3476562e-01   6.3964844e-01   6.3964844e-01   6.3964844e-01   6.3964844e-01   6.3964844e-01   6.3964844e-01   6.3964844e-01   6.3476562e-01   6.3476562e-01   6.2988281e-01   6.2988281e-01   6.2988281e-01   6.2988281e-01   6.2988281e-01   6.2500000e-01   6.2011719e-01   6.2011719e-01   6.2011719e-01   6.1523438e-01   6.2011719e-01   6.1523438e-01   6.1523438e-01   6.1523438e-01   6.1523438e-01   6.1035156e-01   6.1035156e-01   6.1035156e-01   6.1035156e-01   6.1035156e-01   6.0546875e-01   6.0546875e-01   6.0058594e-01   6.0546875e-01   6.0058594e-01   6.0058594e-01   6.0058594e-01   6.0058594e-01   5.9570312e-01   5.9570312e-01   5.9082031e-01   5.9082031e-01   5.9082031e-01   5.9082031e-01   5.8593750e-01   5.8593750e-01   5.8593750e-01   5.8105469e-01   5.8105469e-01   5.8105469e-01   5.8105469e-01   5.8105469e-01   5.8105469e-01   5.7617188e-01   5.8105469e-01   5.7617188e-01   5.7617188e-01   5.7617188e-01   5.7617188e-01   5.8105469e-01   5.8105469e-01   5.8593750e-01   5.9082031e-01   5.9570312e-01   6.0058594e-01   6.1035156e-01   6.1523438e-01   6.2500000e-01   6.2988281e-01   6.3964844e-01   6.4453125e-01   6.4941406e-01   6.5429688e-01   6.5917969e-01   6.6894531e-01   6.7382812e-01   6.7871094e-01   6.8359375e-01   6.8847656e-01   6.8847656e-01   6.9335938e-01   6.9335938e-01   6.9824219e-01   6.9824219e-01   6.9824219e-01   6.9824219e-01   6.9824219e-01   6.9824219e-01   6.9335938e-01   6.9824219e-01   6.9335938e-01   6.9335938e-01   6.8847656e-01   6.8847656e-01   6.8847656e-01   6.8359375e-01   6.8359375e-01   6.7871094e-01   6.7871094e-01   6.7871094e-01   6.7871094e-01   6.7382812e-01   6.7382812e-01   6.6894531e-01   6.6894531e-01   6.6894531e-01   6.6406250e-01   6.5917969e-01   6.5917969e-01   6.5429688e-01   6.5429688e-01   6.4941406e-01   6.4941406e-01   6.4453125e-01   6.3964844e-01   6.3964844e-01   6.3476562e-01   6.3476562e-01   6.2988281e-01   6.2988281e-01   6.2988281e-01   6.2500000e-01   6.2011719e-01   6.2500000e-01   6.2011719e-01   6.2011719e-01   6.2011719e-01   6.1523438e-01   6.1523438e-01   6.1523438e-01   6.1035156e-01   6.0546875e-01   6.0546875e-01   6.0546875e-01   6.0058594e-01   5.9570312e-01   5.9570312e-01   5.9082031e-01   5.9082031e-01   5.8593750e-01   5.8105469e-01   5.8593750e-01   5.8105469e-01   5.8105469e-01   5.8593750e-01   5.8593750e-01   5.9082031e-01   5.9570312e-01   6.0058594e-01   6.0546875e-01   6.1523438e-01   6.2011719e-01   6.2988281e-01   6.3476562e-01   6.3964844e-01   6.4453125e-01   6.5429688e-01   6.5917969e-01   6.6406250e-01   6.6894531e-01   6.7382812e-01   6.7382812e-01   6.7871094e-01   6.8359375e-01   6.8359375e-01   6.8359375e-01   6.8847656e-01   6.8847656e-01   6.8847656e-01   6.8847656e-01   6.8847656e-01   6.8847656e-01   6.8359375e-01   6.8359375e-01   6.8359375e-01   6.7871094e-01   6.8359375e-01   6.7871094e-01   6.7382812e-01   6.7382812e-01   6.7382812e-01   6.6894531e-01   6.6894531e-01   6.6894531e-01   6.6894531e-01   6.6894531e-01   6.6406250e-01   6.6406250e-01   6.5917969e-01   6.5917969e-01   6.5917969e-01   6.5429688e-01   6.4941406e-01   6.4941406e-01   6.4453125e-01   6.3964844e-01   6.3476562e-01   6.3476562e-01   6.2988281e-01   6.2988281e-01   6.2500000e-01   6.2011719e-01   6.1523438e-01   6.1523438e-01   6.1035156e-01   6.1035156e-01   6.0546875e-01   6.0546875e-01   6.0546875e-01   6.0058594e-01   6.0058594e-01   6.0058594e-01   5.9570312e-01   5.9570312e-01   5.9570312e-01   5.9082031e-01   5.9082031e-01   5.9082031e-01   5.9082031e-01   5.8593750e-01   5.8593750e-01   5.8593750e-01   5.8593750e-01   5.8105469e-01   5.8593750e-01   5.8105469e-01   5.8105469e-01   5.8105469e-01   5.7617188e-01   5.7617188e-01   5.7617188e-01   5.7617188e-01   5.8105469e-01   5.8105469e-01   5.8593750e-01   5.9082031e-01   5.9570312e-01   6.0546875e-01   6.1035156e-01   6.2011719e-01   6.2988281e-01   6.2988281e-01   6.3964844e-01   6.4941406e-01   6.5429688e-01   6.5917969e-01   6.6406250e-01   6.6894531e-01   6.7382812e-01   6.7871094e-01   6.7871094e-01   6.8359375e-01   6.8359375e-01   6.8847656e-01   6.8847656e-01   6.8847656e-01   6.8847656e-01   6.8847656e-01   6.8359375e-01   6.8359375e-01   6.7871094e-01   6.7871094e-01   6.7871094e-01   6.7382812e-01   6.6894531e-01   6.6894531e-01   6.6406250e-01   6.5917969e-01   6.5917969e-01   6.5429688e-01   6.4941406e-01   6.4941406e-01   6.4453125e-01   6.4453125e-01   6.3964844e-01   6.3964844e-01   6.3476562e-01   6.2988281e-01   6.2988281e-01   6.2988281e-01   6.2500000e-01   6.2011719e-01   6.2011719e-01   6.1523438e-01   6.1035156e-01   6.0546875e-01   6.0058594e-01   6.0058594e-01   5.9570312e-01   5.9082031e-01   5.8593750e-01   5.8593750e-01   5.8105469e-01   5.7617188e-01   5.7128906e-01   5.6640625e-01   5.6152344e-01   5.5664062e-01   5.5664062e-01   5.5175781e-01   5.5175781e-01   5.4687500e-01   5.4687500e-01   5.4687500e-01   5.4199219e-01   5.4199219e-01   5.3710938e-01   5.3710938e-01   5.3710938e-01   5.3222656e-01   5.3222656e-01   5.3222656e-01   5.2734375e-01   5.2734375e-01   5.2734375e-01   5.2734375e-01   5.2734375e-01   5.2734375e-01   5.2246094e-01   5.2246094e-01   5.2246094e-01   5.2246094e-01   5.2246094e-01   5.2734375e-01   5.3222656e-01   5.3710938e-01   5.4199219e-01   5.4687500e-01   5.5664062e-01   5.6640625e-01   5.7128906e-01   5.8105469e-01   5.9082031e-01   6.0058594e-01   6.0546875e-01   6.1035156e-01   6.2011719e-01   6.2988281e-01   6.3476562e-01   6.3964844e-01   6.4453125e-01   6.4941406e-01   6.4941406e-01   6.5429688e-01   6.5917969e-01   6.5917969e-01   6.6406250e-01   6.5917969e-01   6.6406250e-01   6.6406250e-01   6.5917969e-01   6.5917969e-01   6.5917969e-01   6.5429688e-01   6.5429688e-01   6.5429688e-01   6.4941406e-01   6.4941406e-01   6.4941406e-01   6.4941406e-01   6.4453125e-01   6.4453125e-01   6.4453125e-01   6.3964844e-01   6.3964844e-01   6.3964844e-01   6.3964844e-01   6.3964844e-01   6.3964844e-01   6.3476562e-01   6.3476562e-01   6.3476562e-01   6.3476562e-01   6.2988281e-01   6.2988281e-01   6.2988281e-01   6.2500000e-01   6.2500000e-01   6.2500000e-01   6.2011719e-01   6.2011719e-01   6.2011719e-01   6.1523438e-01   6.1523438e-01   6.1523438e-01   6.1523438e-01   6.1523438e-01   6.1035156e-01   6.1035156e-01   6.1035156e-01   6.0546875e-01   6.0546875e-01   6.0546875e-01   6.0546875e-01   6.0546875e-01   6.0058594e-01   6.0058594e-01   6.0058594e-01   6.0058594e-01   6.0058594e-01   6.0058594e-01   5.9570312e-01   5.9570312e-01   5.9570312e-01   5.9570312e-01   5.9082031e-01   5.9082031e-01   5.9082031e-01   5.8593750e-01   5.8593750e-01   5.8593750e-01   5.8105469e-01   5.8105469e-01   5.8105469e-01   5.8105469e-01   5.8593750e-01   5.9082031e-01   5.9570312e-01   6.0058594e-01   6.0546875e-01   6.1523438e-01   6.2011719e-01   6.2988281e-01   6.3476562e-01   6.3964844e-01   6.3964844e-01   6.4453125e-01   6.4941406e-01   6.5429688e-01   6.5917969e-01   6.5429688e-01   6.6406250e-01   6.6406250e-01   6.6406250e-01   6.6894531e-01   6.6406250e-01   6.6894531e-01   6.6406250e-01   6.6406250e-01   6.6406250e-01   6.5917969e-01   6.5429688e-01   6.5429688e-01   6.4941406e-01   6.4453125e-01   6.4453125e-01   6.3964844e-01   6.3964844e-01   6.3476562e-01   6.2988281e-01   6.2988281e-01   6.2988281e-01   6.2500000e-01   6.2500000e-01   6.2011719e-01   6.2011719e-01   6.1523438e-01   6.1523438e-01   6.1523438e-01   6.1035156e-01   6.0546875e-01   6.0546875e-01   6.0058594e-01   6.0058594e-01   5.9570312e-01   5.9570312e-01   5.9082031e-01   5.8593750e-01   5.8593750e-01   5.8105469e-01   5.8105469e-01   5.7617188e-01   5.7128906e-01   5.7617188e-01   5.7128906e-01   5.7128906e-01   5.7128906e-01   5.6640625e-01   5.7128906e-01   5.7128906e-01   5.6640625e-01   5.6640625e-01   5.7128906e-01   5.7128906e-01   5.7128906e-01   5.6640625e-01   5.6640625e-01   5.7128906e-01   5.6152344e-01   5.6152344e-01   5.6152344e-01   5.5664062e-01   5.5664062e-01   5.5664062e-01   5.5175781e-01   5.5175781e-01   5.5175781e-01   5.4687500e-01   5.5175781e-01   5.5175781e-01   5.5175781e-01   5.5664062e-01   5.6152344e-01   5.7128906e-01   5.7617188e-01   5.8593750e-01   5.9082031e-01   6.0058594e-01   6.0546875e-01   6.1523438e-01   6.2500000e-01   6.2988281e-01   6.3476562e-01   6.3964844e-01   6.4941406e-01   6.5429688e-01   6.5917969e-01   6.5917969e-01   6.6894531e-01   6.7382812e-01   6.7382812e-01   6.7871094e-01   6.7871094e-01   6.7382812e-01   6.7871094e-01   6.7382812e-01   6.7382812e-01   6.7382812e-01   6.7382812e-01   6.7382812e-01   6.6894531e-01   6.6406250e-01   6.6894531e-01   6.6406250e-01   6.6406250e-01   6.6406250e-01   6.5917969e-01   6.6406250e-01   6.5917969e-01   6.5917969e-01   6.5917969e-01   6.5917969e-01   6.5429688e-01   6.5429688e-01   6.5429688e-01   6.5429688e-01   6.4941406e-01   6.4941406e-01   6.4941406e-01   6.4453125e-01   6.4453125e-01   6.4453125e-01   6.3964844e-01   6.3964844e-01   6.3476562e-01   6.3476562e-01   6.3476562e-01   6.2988281e-01   6.2988281e-01   6.2988281e-01   6.2988281e-01   6.2500000e-01   6.2011719e-01   6.2011719e-01   6.2011719e-01   6.2011719e-01   6.1523438e-01   6.1523438e-01   6.1523438e-01   6.1523438e-01   6.1035156e-01   6.1035156e-01   6.0546875e-01   6.0546875e-01   6.0546875e-01   6.0546875e-01   6.0058594e-01   6.0058594e-01   6.0058594e-01   6.0546875e-01   6.0546875e-01   6.1035156e-01   6.1523438e-01   6.2011719e-01   6.2988281e-01   6.3476562e-01   6.4453125e-01   6.4941406e-01   6.5917969e-01   6.5917969e-01   6.6894531e-01   6.7382812e-01   6.7871094e-01   6.8359375e-01   6.8359375e-01   6.8847656e-01   6.9335938e-01   6.9335938e-01   6.9824219e-01   6.9335938e-01   6.9335938e-01   6.9335938e-01   6.9335938e-01   6.8847656e-01   6.8847656e-01   6.8359375e-01   6.7871094e-01   6.7871094e-01   6.6894531e-01   6.6894531e-01   6.6406250e-01   6.5917969e-01   6.5917969e-01   6.5429688e-01   6.5429688e-01   6.4941406e-01   6.4453125e-01   6.4453125e-01   6.3964844e-01   6.3476562e-01   6.3476562e-01   6.2988281e-01   6.2500000e-01   6.2011719e-01   6.1523438e-01   6.1523438e-01   6.1035156e-01   6.0546875e-01   6.0058594e-01   6.0058594e-01   5.9570312e-01   5.9082031e-01   5.9082031e-01   5.8593750e-01   5.8105469e-01   5.7617188e-01   5.7617188e-01   5.7128906e-01   5.7128906e-01   5.6640625e-01   5.6640625e-01   5.6152344e-01   5.6152344e-01   5.5664062e-01   5.6152344e-01   5.5175781e-01   5.5175781e-01   5.5175781e-01   5.5175781e-01   5.5175781e-01   5.4687500e-01   5.4687500e-01   5.4199219e-01   5.4199219e-01   5.4199219e-01   5.4199219e-01   5.4199219e-01   5.4199219e-01   5.4687500e-01   5.4687500e-01   5.5175781e-01   5.6152344e-01   5.7128906e-01   5.8105469e-01   5.8593750e-01   5.9570312e-01   6.1035156e-01   6.1523438e-01   6.2500000e-01   6.2988281e-01   6.3964844e-01   6.4941406e-01   6.5429688e-01   6.6406250e-01   6.6894531e-01   6.7382812e-01   6.8359375e-01   6.8847656e-01   6.9335938e-01   6.9824219e-01   7.0312500e-01   7.0312500e-01   7.0800781e-01   7.0800781e-01   7.0800781e-01   7.0800781e-01   7.0800781e-01   7.0800781e-01   7.0312500e-01   7.0312500e-01   7.0312500e-01   7.0312500e-01   6.9824219e-01   6.9824219e-01   6.9824219e-01   6.9824219e-01   6.9824219e-01   6.9335938e-01   6.9335938e-01   6.9335938e-01   6.9335938e-01   6.8847656e-01   6.8359375e-01   6.8359375e-01   6.8359375e-01   6.8359375e-01   6.7871094e-01   6.7871094e-01   6.7871094e-01   6.7382812e-01   6.7382812e-01   6.6894531e-01   6.6406250e-01   6.6406250e-01   6.5917969e-01   6.5917969e-01   6.5917969e-01   6.5429688e-01   6.5429688e-01   6.4941406e-01   6.4941406e-01   6.4453125e-01   6.3964844e-01   6.3964844e-01   6.3964844e-01   6.3476562e-01   6.3476562e-01   6.2988281e-01   6.2988281e-01   6.2988281e-01   6.2988281e-01   6.2500000e-01   6.2011719e-01   6.2011719e-01   6.2011719e-01   6.1523438e-01   6.1523438e-01   6.1523438e-01   6.1523438e-01   6.1523438e-01   6.2011719e-01   6.2500000e-01   6.2988281e-01   6.3476562e-01   6.4453125e-01   6.5429688e-01   6.5917969e-01   6.6894531e-01   6.7382812e-01   6.8359375e-01   6.8847656e-01   6.9824219e-01   7.0312500e-01   7.0800781e-01   7.1289062e-01   7.2265625e-01   7.2265625e-01   7.2753906e-01   7.3242188e-01   7.3730469e-01   7.3730469e-01   7.4218750e-01   7.3730469e-01   7.4218750e-01   7.3730469e-01   7.3730469e-01   7.3730469e-01   7.3242188e-01   7.3242188e-01   7.2753906e-01   7.2265625e-01   7.2265625e-01   7.1777344e-01   7.1289062e-01   7.1289062e-01   7.0800781e-01   7.0312500e-01   6.9824219e-01   6.9824219e-01   6.9335938e-01   6.8847656e-01   6.8359375e-01   6.8359375e-01   6.7871094e-01   6.7382812e-01   6.6894531e-01   6.6406250e-01   6.6406250e-01   6.5917969e-01   6.5429688e-01   6.4941406e-01   6.4453125e-01   6.3964844e-01   6.3476562e-01   6.3476562e-01   6.2988281e-01   6.2500000e-01   6.1523438e-01   6.1523438e-01   6.1035156e-01   6.0546875e-01   6.0058594e-01   5.9570312e-01   5.9082031e-01   5.9082031e-01   5.8593750e-01   5.8105469e-01   5.8105469e-01   5.7617188e-01   5.7128906e-01   5.7128906e-01   5.6640625e-01   5.6152344e-01   5.6152344e-01   5.5664062e-01   5.5664062e-01   5.5175781e-01   5.5175781e-01   5.4687500e-01   5.4687500e-01   5.4687500e-01   5.4687500e-01   5.5664062e-01   5.5664062e-01   5.6640625e-01   5.7617188e-01   5.8105469e-01   5.8593750e-01   5.9570312e-01   6.0546875e-01   6.1523438e-01   6.2011719e-01   6.2988281e-01   6.3476562e-01   6.3964844e-01   6.4453125e-01   6.4941406e-01   6.5429688e-01   6.5917969e-01   6.6406250e-01   6.6894531e-01   6.6894531e-01   6.7382812e-01   6.7871094e-01   6.7871094e-01   6.7871094e-01   6.7871094e-01   6.7871094e-01   6.7382812e-01   6.7382812e-01   6.6894531e-01   6.6894531e-01   6.6894531e-01   6.6406250e-01   6.6406250e-01   6.5917969e-01   6.5917969e-01   6.5917969e-01   6.5429688e-01   6.5429688e-01   6.4941406e-01   6.4941406e-01   6.4941406e-01   6.4453125e-01   6.4453125e-01   6.4453125e-01   6.3964844e-01   6.3964844e-01   6.3964844e-01   6.3476562e-01   6.3476562e-01   6.2988281e-01   6.2988281e-01   6.2988281e-01   6.2500000e-01   6.2011719e-01   6.2011719e-01   6.1523438e-01   6.1523438e-01   6.1523438e-01   6.1035156e-01   6.0546875e-01   6.0546875e-01   6.0546875e-01   6.0058594e-01   6.0058594e-01   6.0058594e-01   5.9570312e-01   5.9082031e-01   5.9082031e-01   5.9082031e-01   5.9082031e-01   5.8593750e-01   5.8593750e-01   5.8593750e-01   5.8105469e-01   5.8105469e-01   5.8105469e-01   5.7617188e-01   5.7617188e-01   5.7617188e-01   5.7617188e-01   5.7617188e-01   5.7617188e-01   5.8105469e-01   5.8593750e-01   5.9082031e-01   6.0058594e-01   6.1035156e-01   6.1523438e-01   6.2500000e-01   6.2988281e-01   6.3476562e-01   6.3964844e-01   6.4941406e-01   6.5429688e-01   6.5917969e-01   6.6406250e-01   6.7382812e-01   6.7382812e-01   6.7871094e-01   6.8359375e-01   6.8359375e-01   6.8847656e-01   6.8847656e-01   6.8847656e-01   6.8847656e-01   6.8847656e-01   6.8359375e-01   6.8359375e-01   6.8359375e-01   6.7871094e-01   6.7382812e-01   6.7382812e-01   6.6894531e-01   6.6894531e-01   6.6406250e-01   6.5917969e-01   6.5917969e-01   6.5429688e-01   6.4941406e-01   6.4941406e-01   6.4453125e-01   6.4453125e-01   6.3964844e-01   6.3476562e-01   6.2988281e-01   6.2988281e-01   6.2988281e-01   6.2011719e-01   6.2011719e-01   6.1523438e-01   6.1035156e-01   6.0546875e-01   6.0058594e-01   6.0058594e-01   5.9570312e-01   5.9082031e-01   5.9082031e-01   5.8105469e-01   5.8105469e-01   5.7617188e-01   5.7617188e-01   5.7128906e-01   5.6640625e-01   5.6640625e-01   5.6152344e-01   5.5664062e-01   5.5664062e-01   5.5175781e-01   5.5175781e-01   5.5175781e-01   5.5175781e-01   5.5175781e-01   5.4687500e-01   5.4199219e-01   5.4199219e-01   5.4199219e-01   5.3710938e-01   5.4199219e-01   5.3710938e-01   5.3710938e-01   5.4199219e-01   5.4199219e-01   5.4687500e-01   5.5664062e-01   5.6152344e-01   5.6640625e-01   5.7128906e-01   5.8593750e-01   5.9082031e-01   5.9570312e-01   6.0546875e-01   6.1035156e-01   6.2011719e-01   6.2988281e-01   6.2988281e-01   6.3476562e-01   6.3964844e-01   6.4453125e-01   6.4941406e-01   6.4941406e-01   6.5429688e-01   6.5429688e-01   6.5917969e-01   6.5917969e-01   6.5917969e-01   6.6406250e-01   6.5917969e-01   6.5917969e-01   6.5429688e-01   6.5429688e-01   6.4941406e-01   6.4941406e-01   6.4453125e-01   6.4453125e-01   6.4453125e-01   6.3964844e-01   6.3964844e-01   6.3964844e-01   6.3476562e-01   6.3476562e-01   6.2988281e-01   6.2988281e-01   6.2988281e-01   6.2988281e-01   6.2988281e-01   6.2500000e-01   6.2500000e-01   6.2011719e-01   6.2011719e-01   6.1523438e-01   6.1523438e-01   6.1035156e-01   6.1035156e-01   6.1035156e-01   6.0546875e-01   6.0546875e-01   6.0058594e-01   6.0058594e-01   6.0058594e-01   5.9570312e-01   5.9570312e-01   5.9082031e-01   5.9082031e-01   5.9082031e-01   5.8593750e-01   5.8593750e-01   5.8593750e-01   5.8105469e-01   5.7617188e-01   5.8105469e-01   5.7617188e-01   5.7617188e-01   5.7617188e-01   5.7128906e-01   5.7128906e-01   5.7128906e-01   5.7617188e-01   5.7617188e-01   5.7617188e-01   5.8593750e-01   5.9082031e-01   5.9570312e-01   6.0058594e-01   6.0546875e-01   6.1523438e-01   6.2011719e-01   6.2500000e-01   6.2988281e-01   6.3476562e-01   6.4453125e-01   6.4941406e-01   6.4941406e-01   6.5429688e-01   6.5917969e-01   6.5917969e-01   6.6406250e-01   6.6406250e-01   6.6894531e-01   6.6894531e-01   6.6894531e-01   6.6894531e-01   6.6894531e-01   6.6406250e-01   6.6894531e-01   6.5917969e-01   6.5917969e-01   6.5917969e-01   6.5429688e-01   6.5429688e-01   6.4941406e-01   6.4453125e-01   6.4453125e-01   6.3964844e-01   6.3964844e-01   6.3964844e-01   6.3476562e-01   6.3476562e-01   6.3476562e-01   6.2988281e-01   6.2988281e-01   6.2988281e-01   6.2500000e-01   6.2011719e-01   6.2011719e-01   6.1523438e-01   6.1523438e-01   6.1035156e-01   6.1035156e-01   6.0546875e-01   6.0546875e-01   6.0058594e-01   6.0058594e-01   5.9570312e-01   5.9082031e-01   5.9082031e-01   5.9082031e-01   5.8593750e-01   5.8593750e-01   5.8105469e-01   5.8105469e-01   5.8105469e-01   5.8105469e-01   5.7617188e-01   5.7617188e-01   5.7128906e-01   5.7128906e-01   5.6640625e-01   5.6152344e-01   5.6152344e-01   5.6152344e-01   5.5664062e-01   5.5664062e-01   5.5175781e-01   5.5175781e-01   5.5175781e-01   5.5175781e-01   5.5175781e-01   5.5664062e-01   5.5664062e-01   5.6152344e-01   5.6640625e-01   5.7617188e-01   5.8105469e-01   5.9082031e-01   6.0058594e-01   6.0546875e-01   6.1523438e-01   6.2011719e-01   6.2988281e-01   6.3476562e-01   6.4453125e-01   6.4453125e-01   6.4941406e-01   6.5429688e-01   6.5917969e-01   6.6406250e-01   6.6894531e-01   6.6894531e-01   6.7382812e-01   6.7382812e-01   6.7871094e-01   6.7871094e-01   6.8359375e-01   6.7871094e-01   6.7871094e-01   6.7871094e-01   6.7382812e-01   6.7382812e-01   6.6894531e-01   6.6894531e-01   6.6406250e-01   6.6406250e-01   6.5917969e-01   6.5917969e-01   6.5917969e-01   6.5429688e-01   6.5429688e-01   6.4941406e-01   6.4941406e-01   6.4453125e-01   6.3964844e-01   6.3964844e-01   6.3476562e-01   6.3476562e-01   6.2988281e-01   6.2988281e-01   6.2500000e-01   6.2011719e-01   6.1523438e-01   6.1523438e-01   6.1035156e-01   6.1035156e-01   6.1035156e-01   6.0058594e-01   6.0058594e-01   6.0058594e-01   5.9570312e-01   5.9082031e-01   5.9082031e-01   5.8593750e-01   5.8593750e-01   5.8105469e-01   5.8105469e-01   5.8105469e-01   5.7617188e-01   5.7617188e-01   5.7128906e-01   5.7128906e-01   5.6640625e-01   5.6640625e-01   5.6152344e-01   5.6152344e-01   5.5664062e-01   5.6152344e-01   5.5664062e-01   5.5175781e-01   5.5175781e-01   5.5175781e-01   5.5175781e-01   5.5175781e-01   5.5175781e-01   5.5175781e-01   5.5175781e-01   5.5664062e-01   5.6152344e-01   5.6640625e-01   5.7128906e-01   5.7617188e-01   5.8593750e-01   5.9082031e-01   5.9570312e-01   6.0546875e-01   6.1035156e-01   6.1523438e-01   6.2500000e-01   6.2988281e-01   6.3476562e-01   6.3964844e-01   6.3964844e-01   6.4453125e-01   6.4941406e-01   6.4941406e-01   6.5429688e-01   6.5429688e-01   6.5429688e-01   6.5917969e-01   6.5917969e-01   6.5917969e-01   6.5917969e-01   6.5429688e-01   6.5429688e-01   6.4941406e-01   6.4941406e-01   6.4453125e-01   6.3964844e-01   6.3964844e-01   6.3476562e-01   6.3476562e-01   6.2988281e-01   6.2988281e-01   6.2500000e-01   6.2011719e-01   6.2011719e-01   6.1523438e-01   6.1523438e-01   6.1523438e-01   6.1035156e-01   6.0546875e-01   6.0058594e-01   6.0058594e-01   5.9570312e-01   5.9082031e-01   5.9082031e-01   5.8593750e-01   5.8105469e-01   5.8105469e-01   5.7617188e-01   5.7128906e-01   5.7128906e-01   5.6640625e-01   5.6640625e-01   5.6152344e-01   5.6152344e-01   5.5664062e-01   5.5175781e-01   5.5175781e-01   5.4687500e-01   5.4687500e-01   5.4199219e-01   5.4199219e-01   5.4199219e-01   5.4199219e-01   5.3710938e-01   5.3710938e-01   5.3222656e-01   5.3222656e-01   5.3222656e-01   5.3222656e-01   5.3222656e-01   5.3222656e-01   5.3222656e-01   5.3222656e-01   5.3222656e-01   5.3710938e-01   5.4199219e-01   5.4687500e-01   5.5664062e-01   5.6152344e-01   5.7128906e-01   5.7617188e-01   5.8105469e-01   5.9570312e-01   6.0058594e-01   6.0546875e-01   6.1523438e-01   6.1523438e-01   6.2500000e-01   6.2988281e-01   6.3476562e-01   6.3964844e-01   6.4453125e-01   6.4453125e-01   6.4941406e-01   6.5429688e-01   6.5429688e-01   6.5917969e-01   6.5917969e-01   6.5917969e-01   6.5917969e-01   6.5429688e-01   6.5429688e-01   6.5429688e-01   6.4941406e-01   6.4453125e-01   6.3964844e-01   6.3964844e-01   6.3476562e-01   6.2988281e-01   6.2988281e-01   6.2988281e-01   6.2500000e-01   6.2011719e-01   6.1523438e-01   6.1523438e-01   6.1523438e-01   6.1035156e-01   6.1035156e-01   6.0546875e-01   6.0546875e-01   6.0058594e-01   6.0058594e-01   6.0058594e-01   5.9570312e-01   5.9570312e-01   5.9570312e-01   5.9082031e-01   5.8593750e-01   5.9082031e-01   5.8105469e-01   5.8105469e-01   5.8105469e-01   5.7617188e-01   5.7617188e-01   5.7128906e-01   5.7128906e-01   5.6640625e-01   5.6640625e-01   5.6152344e-01   5.6152344e-01   5.5664062e-01   5.5175781e-01   5.5175781e-01   5.4687500e-01   5.4687500e-01   5.4199219e-01   5.4687500e-01   5.4199219e-01   5.3710938e-01   5.3710938e-01   5.3710938e-01   5.3710938e-01   5.3222656e-01   5.3222656e-01   5.3222656e-01   5.3222656e-01   5.3222656e-01   5.3222656e-01   5.3222656e-01   5.3710938e-01   5.4199219e-01   5.4199219e-01   5.4687500e-01   5.5175781e-01   5.6152344e-01   5.6640625e-01   5.7128906e-01   5.8105469e-01   5.8593750e-01   5.9082031e-01   5.9570312e-01   6.0058594e-01   6.0546875e-01   6.1035156e-01   6.1035156e-01   6.1523438e-01   6.2011719e-01   6.2011719e-01   6.2500000e-01   6.2988281e-01   6.2988281e-01   6.2988281e-01   6.2988281e-01   6.2988281e-01   6.2988281e-01   6.2500000e-01   6.2500000e-01   6.2011719e-01   6.1523438e-01   6.1523438e-01   6.1035156e-01   6.1035156e-01   6.0058594e-01   6.0058594e-01   5.9570312e-01   5.9570312e-01   5.9082031e-01   5.9082031e-01   5.9082031e-01   5.8593750e-01   5.8593750e-01   5.8593750e-01   5.8593750e-01   5.8105469e-01   5.7617188e-01   5.7617188e-01   5.7617188e-01   5.7128906e-01   5.7128906e-01   5.7128906e-01   5.7128906e-01   5.6640625e-01   5.6640625e-01   5.6640625e-01   5.6152344e-01   5.6152344e-01   5.6152344e-01   5.5664062e-01   5.6152344e-01   5.5664062e-01   5.5664062e-01   5.5175781e-01   5.5175781e-01   5.5175781e-01   5.5175781e-01   5.5175781e-01   5.4687500e-01   5.4687500e-01   5.4687500e-01   5.4687500e-01   5.4199219e-01   5.4687500e-01   5.4199219e-01   5.3710938e-01   5.3710938e-01   5.3710938e-01   5.3710938e-01   5.3710938e-01   5.3222656e-01   5.3222656e-01   5.3222656e-01   5.3222656e-01   5.2734375e-01   5.2734375e-01   5.2734375e-01   5.2734375e-01   5.2734375e-01   5.2734375e-01   5.3222656e-01   5.3710938e-01   5.4199219e-01   5.4687500e-01   5.5664062e-01   5.6152344e-01   5.7128906e-01   5.7617188e-01   5.8593750e-01   5.9570312e-01   6.0058594e-01   6.0546875e-01   6.1035156e-01   6.1523438e-01   6.2011719e-01   6.2500000e-01   6.2988281e-01   6.3476562e-01   6.3476562e-01   6.3964844e-01   6.3964844e-01   6.3964844e-01   6.4453125e-01   6.4453125e-01   6.3964844e-01   6.4453125e-01   6.4453125e-01   6.3964844e-01   6.3964844e-01   6.3964844e-01   6.3476562e-01   6.3476562e-01   6.2988281e-01   6.2988281e-01   6.2500000e-01   6.2500000e-01   6.2011719e-01   6.2011719e-01   6.1523438e-01   6.2011719e-01   6.1523438e-01   6.1035156e-01   6.1035156e-01   6.1035156e-01   6.0546875e-01   6.0546875e-01   6.0058594e-01   6.0058594e-01   6.0058594e-01   5.9570312e-01   5.9570312e-01   5.9082031e-01   5.9082031e-01   5.9082031e-01   5.8593750e-01   5.8593750e-01   5.8593750e-01   5.8105469e-01   5.8105469e-01   5.7617188e-01   5.7617188e-01   5.7617188e-01   5.7617188e-01   5.7617188e-01   5.7128906e-01   5.7617188e-01   5.6640625e-01   5.7128906e-01   5.6640625e-01   5.6640625e-01   5.6640625e-01   5.6640625e-01   5.6640625e-01   5.6640625e-01   5.6640625e-01   5.6152344e-01   5.6640625e-01   5.6152344e-01   5.6152344e-01   5.6152344e-01   5.5664062e-01   5.5664062e-01   5.5664062e-01   5.5664062e-01   5.5664062e-01   5.6152344e-01   5.6640625e-01   5.7128906e-01   5.7617188e-01   5.8105469e-01   5.9082031e-01   5.9570312e-01   6.0058594e-01   6.1035156e-01   6.1523438e-01   6.2011719e-01   6.2500000e-01   6.2988281e-01   6.3476562e-01   6.3964844e-01   6.3964844e-01   6.4453125e-01   6.4453125e-01   6.4941406e-01   6.4941406e-01   6.5429688e-01   6.5429688e-01   6.5429688e-01   6.5429688e-01   6.5429688e-01   6.5429688e-01   6.4941406e-01   6.4453125e-01   6.4453125e-01   6.3964844e-01   6.3476562e-01   6.3476562e-01   6.3476562e-01   6.2988281e-01   6.2988281e-01   6.2988281e-01   6.2500000e-01   6.2011719e-01   6.2011719e-01   6.2011719e-01   6.2011719e-01   6.1523438e-01   6.1523438e-01   6.1035156e-01   6.1035156e-01   6.0546875e-01   6.0546875e-01   6.0058594e-01   6.0058594e-01   5.9570312e-01   5.9570312e-01   5.9570312e-01   5.9082031e-01   5.9082031e-01   5.8593750e-01   5.8593750e-01   5.8105469e-01   5.8105469e-01   5.8105469e-01   5.7617188e-01   5.7617188e-01   5.7617188e-01   5.7128906e-01   5.6640625e-01   5.6640625e-01   5.6640625e-01   5.6640625e-01   5.6152344e-01   5.6640625e-01   5.6152344e-01   5.6152344e-01   5.6152344e-01   5.6152344e-01   5.6152344e-01   5.6152344e-01   5.6152344e-01   5.6152344e-01   5.6152344e-01   5.6152344e-01   5.6152344e-01   5.6152344e-01   5.6152344e-01   5.6640625e-01   5.6640625e-01   5.7128906e-01   5.7617188e-01   5.8105469e-01   5.8593750e-01   5.9082031e-01   6.0058594e-01   6.1035156e-01   6.1523438e-01   6.2500000e-01   6.2988281e-01   6.3476562e-01   6.4453125e-01   6.4453125e-01   6.4941406e-01   6.5917969e-01   6.6406250e-01   6.6406250e-01   6.6894531e-01   6.6894531e-01   6.7382812e-01   6.7382812e-01   6.7382812e-01   6.7871094e-01   6.7382812e-01   6.7871094e-01   6.7871094e-01   6.7382812e-01   6.7382812e-01   6.6894531e-01   6.6894531e-01   6.6406250e-01   6.6406250e-01   6.5917969e-01   6.5917969e-01   6.5429688e-01   6.5429688e-01   6.4941406e-01   6.4941406e-01   6.4453125e-01   6.4453125e-01   6.4453125e-01   6.3964844e-01   6.3476562e-01   6.3476562e-01   6.3476562e-01   6.3476562e-01   6.2988281e-01   6.2988281e-01   6.2500000e-01   6.2011719e-01   6.2011719e-01   6.2011719e-01   6.1523438e-01   6.1523438e-01   6.1035156e-01   6.1035156e-01   6.1035156e-01   6.0546875e-01   6.0546875e-01   6.0546875e-01   6.0058594e-01   6.0058594e-01   5.9570312e-01   5.9082031e-01   5.9082031e-01   5.9082031e-01   5.8593750e-01   5.8593750e-01   5.8105469e-01   5.8105469e-01   5.7617188e-01   5.7617188e-01   5.7617188e-01   5.7128906e-01   5.7128906e-01   5.7128906e-01   5.6640625e-01   5.6640625e-01   5.6640625e-01   5.6640625e-01   5.6640625e-01   5.6152344e-01   5.6152344e-01   5.6152344e-01   5.5664062e-01   5.5664062e-01   5.5175781e-01   5.5175781e-01   5.5664062e-01   5.5175781e-01   5.5664062e-01   5.5664062e-01   5.6152344e-01   5.6640625e-01   5.7128906e-01   5.7617188e-01   5.8593750e-01   5.9082031e-01   6.0058594e-01   6.0546875e-01   6.1523438e-01   6.2011719e-01   6.2988281e-01   6.3476562e-01   6.3964844e-01   6.4453125e-01   6.4941406e-01   6.5429688e-01   6.5917969e-01   6.6406250e-01   6.6894531e-01   6.6894531e-01   6.7382812e-01   6.7382812e-01   6.7382812e-01   6.7382812e-01   6.7382812e-01   6.7382812e-01   6.6894531e-01   6.6894531e-01   6.6894531e-01   6.6406250e-01   6.6406250e-01   6.6406250e-01   6.5917969e-01   6.5429688e-01   6.5429688e-01   6.5429688e-01   6.4941406e-01   6.4941406e-01   6.4453125e-01   6.4453125e-01   6.3964844e-01   6.3964844e-01   6.3964844e-01   6.3476562e-01   6.3476562e-01   6.3476562e-01   6.3476562e-01   6.3476562e-01   6.2988281e-01   6.2988281e-01   6.2988281e-01   6.2500000e-01   6.2500000e-01   6.2011719e-01   6.2011719e-01   6.1523438e-01   6.1523438e-01   6.1523438e-01   6.1035156e-01   6.0546875e-01   6.0546875e-01   6.0546875e-01   6.0546875e-01   6.0058594e-01   6.0058594e-01   5.9570312e-01   5.9570312e-01   5.9082031e-01   5.9082031e-01   5.8593750e-01   5.8593750e-01   5.8593750e-01   5.8593750e-01   5.8593750e-01   5.8105469e-01   5.8593750e-01   5.8105469e-01   5.8105469e-01   5.8593750e-01   5.8105469e-01   5.8105469e-01   5.8105469e-01   5.8105469e-01   5.8105469e-01   5.8593750e-01   5.8593750e-01   5.9082031e-01   5.9570312e-01   6.0058594e-01   6.0546875e-01   6.1523438e-01   6.2011719e-01   6.2988281e-01   6.3476562e-01   6.3476562e-01   6.3964844e-01   6.4941406e-01   6.5429688e-01   6.5917969e-01   6.5917969e-01   6.6406250e-01   6.6894531e-01   6.6894531e-01   6.7382812e-01   6.6894531e-01   6.7382812e-01   6.7382812e-01   6.7382812e-01   6.7382812e-01   6.7382812e-01   6.6894531e-01   6.6894531e-01   6.6406250e-01   6.6406250e-01   6.5917969e-01   6.5429688e-01   6.5429688e-01   6.4941406e-01   6.4941406e-01   6.4453125e-01   6.3964844e-01   6.3964844e-01   6.3476562e-01   6.2988281e-01   6.2988281e-01   6.2988281e-01   6.2500000e-01   6.2500000e-01   6.2500000e-01   6.2011719e-01   6.1523438e-01   6.1523438e-01   6.1035156e-01   6.1035156e-01   6.1035156e-01   6.1035156e-01   6.0546875e-01   6.0546875e-01   6.0058594e-01   6.0058594e-01   6.0058594e-01   5.9570312e-01   5.9570312e-01   5.9082031e-01   5.9082031e-01   5.9082031e-01   5.8593750e-01   5.8593750e-01   5.8593750e-01   5.8105469e-01   5.8105469e-01   5.8105469e-01   5.8105469e-01   5.8105469e-01   5.7617188e-01   5.7617188e-01   5.7617188e-01   5.7617188e-01   5.7128906e-01   5.7128906e-01   5.7128906e-01   5.7128906e-01   5.6640625e-01   5.6640625e-01   5.6152344e-01   5.6152344e-01   5.6152344e-01   5.5664062e-01   5.5664062e-01   5.5664062e-01   5.5664062e-01   5.6152344e-01   5.6640625e-01   5.7128906e-01   5.8105469e-01   5.8593750e-01   5.9082031e-01   6.0058594e-01   6.1035156e-01   6.1523438e-01   6.2011719e-01   6.2988281e-01   6.3476562e-01   6.3964844e-01   6.4453125e-01   6.4941406e-01   6.5429688e-01   6.5429688e-01   6.5917969e-01   6.6406250e-01   6.6894531e-01   6.6894531e-01   6.6894531e-01   6.6894531e-01   6.6894531e-01   6.6894531e-01   6.6406250e-01   6.6406250e-01   6.6406250e-01   6.5917969e-01   6.5917969e-01   6.5917969e-01   6.5429688e-01   6.5429688e-01   6.4941406e-01   6.4941406e-01   6.4453125e-01   6.4453125e-01   6.4453125e-01   6.3964844e-01   6.3964844e-01   6.3964844e-01   6.3476562e-01   6.3476562e-01   6.2988281e-01   6.2988281e-01   6.2988281e-01   6.2988281e-01   6.2988281e-01   6.2500000e-01   6.2011719e-01   6.2011719e-01   6.2011719e-01   6.2011719e-01   6.1523438e-01   6.1523438e-01   6.1523438e-01   6.1035156e-01   6.1035156e-01   6.1035156e-01   6.0546875e-01   6.0058594e-01   6.0058594e-01   6.0058594e-01   5.9570312e-01   5.9570312e-01   5.9082031e-01   5.9082031e-01   5.8593750e-01   5.8593750e-01   5.8593750e-01   5.8593750e-01   5.8105469e-01   5.8105469e-01   5.7617188e-01   5.7617188e-01   5.7128906e-01   5.7128906e-01   5.7128906e-01   5.7128906e-01   5.6640625e-01   5.6640625e-01   5.6152344e-01   5.6152344e-01   5.6152344e-01   5.5664062e-01   5.5664062e-01   5.6152344e-01   5.6152344e-01   5.6152344e-01   5.6640625e-01   5.7128906e-01   5.8105469e-01   5.8593750e-01   5.9570312e-01   6.0058594e-01   6.1035156e-01   6.2011719e-01   6.2500000e-01   6.3476562e-01   6.3964844e-01   6.4453125e-01   6.5429688e-01   6.5917969e-01   6.6406250e-01   6.6894531e-01   6.6894531e-01   6.7382812e-01   6.7871094e-01   6.7871094e-01   6.8359375e-01   6.8359375e-01   6.7871094e-01   6.8359375e-01   6.7871094e-01   6.7382812e-01   6.7382812e-01   6.7382812e-01   6.6894531e-01   6.6894531e-01   6.6406250e-01   6.5917969e-01   6.5917969e-01   6.5429688e-01   6.5429688e-01   6.4941406e-01   6.4453125e-01   6.4453125e-01   6.3964844e-01   6.3964844e-01   6.3964844e-01   6.3476562e-01   6.3476562e-01   6.2988281e-01   6.2988281e-01   6.2988281e-01   6.2988281e-01   6.2988281e-01   6.2500000e-01   6.2500000e-01   6.2011719e-01   6.2011719e-01   6.2011719e-01   6.1523438e-01   6.1523438e-01   6.1035156e-01   6.1035156e-01   6.1035156e-01   6.0546875e-01   6.0546875e-01   6.0546875e-01   6.0058594e-01   6.0058594e-01   6.0058594e-01   6.0058594e-01   5.9570312e-01   5.9570312e-01   5.9570312e-01   5.9082031e-01   5.9082031e-01   5.8593750e-01   5.9082031e-01   5.8593750e-01   5.8593750e-01   5.8593750e-01   5.8105469e-01   5.8105469e-01   5.8105469e-01   5.7617188e-01   5.8105469e-01   5.7617188e-01   5.8105469e-01   5.7617188e-01   5.7617188e-01   5.7617188e-01   5.7128906e-01   5.7128906e-01   5.7128906e-01   5.7128906e-01   5.7128906e-01   5.7128906e-01   5.7128906e-01   5.7617188e-01   5.8105469e-01   5.8593750e-01   5.9570312e-01   6.0058594e-01   6.0546875e-01   6.1523438e-01   6.2500000e-01   6.2988281e-01   6.3964844e-01   6.4453125e-01   6.5429688e-01   6.5917969e-01   6.6406250e-01   6.6894531e-01   6.7382812e-01   6.7871094e-01   6.8359375e-01   6.8359375e-01   6.8847656e-01   6.8847656e-01   6.8847656e-01   6.8847656e-01   6.9335938e-01   6.8847656e-01   6.8847656e-01   6.8847656e-01   6.8847656e-01   6.8359375e-01   6.8359375e-01   6.7871094e-01   6.7382812e-01   6.7382812e-01   6.6894531e-01   6.6894531e-01   6.6894531e-01   6.6406250e-01   6.5917969e-01   6.5917969e-01   6.5429688e-01   6.5429688e-01   6.4941406e-01   6.4941406e-01   6.4453125e-01   6.3964844e-01   6.3964844e-01   6.3964844e-01   6.2988281e-01   6.2988281e-01   6.2988281e-01   6.2500000e-01   6.2011719e-01   6.1523438e-01   6.2011719e-01   6.1523438e-01   6.1035156e-01   6.1035156e-01   6.0546875e-01   6.0546875e-01   6.0058594e-01   5.9570312e-01   5.9570312e-01   5.9082031e-01   5.9082031e-01   5.9082031e-01   5.8593750e-01   5.8105469e-01   5.8105469e-01   5.7617188e-01   5.8105469e-01   5.7617188e-01   5.7617188e-01   5.7617188e-01   5.7128906e-01   5.7128906e-01   5.7128906e-01   5.6640625e-01   5.6640625e-01   5.6152344e-01   5.6152344e-01   5.6152344e-01   5.5664062e-01   5.5664062e-01   5.6152344e-01   5.6152344e-01   5.6640625e-01   5.7128906e-01   5.7617188e-01   5.8593750e-01   5.9082031e-01   6.0058594e-01   6.1035156e-01   6.1523438e-01   6.2988281e-01   6.3476562e-01   6.4453125e-01   6.4941406e-01   6.5429688e-01   6.6406250e-01   6.6894531e-01   6.7382812e-01   6.8359375e-01   6.8359375e-01   6.8847656e-01   6.9335938e-01   6.9335938e-01   6.9824219e-01   6.9824219e-01   6.9824219e-01   7.0312500e-01   6.9824219e-01   6.9824219e-01   6.9824219e-01   6.9335938e-01   6.9335938e-01   6.8847656e-01   6.8847656e-01   6.8359375e-01   6.7871094e-01   6.7871094e-01   6.7382812e-01   6.7382812e-01   6.7382812e-01   6.6894531e-01   6.6894531e-01   6.6894531e-01   6.6406250e-01   6.5917969e-01   6.5917969e-01   6.5429688e-01   6.5429688e-01   6.4941406e-01   6.4941406e-01   6.4453125e-01   6.4453125e-01   6.3964844e-01   6.3964844e-01   6.3476562e-01   6.3476562e-01   6.2988281e-01   6.2988281e-01   6.2988281e-01   6.2011719e-01   6.1523438e-01   6.2011719e-01   6.1523438e-01   6.1523438e-01   6.1035156e-01   6.1035156e-01   6.0546875e-01   6.0058594e-01   6.0546875e-01   6.0058594e-01   5.9570312e-01   5.9570312e-01   5.9570312e-01   5.9082031e-01   5.9570312e-01   5.8593750e-01   5.8593750e-01   5.8593750e-01   5.8105469e-01   5.8105469e-01   5.8105469e-01   5.7617188e-01   5.8105469e-01   5.7617188e-01   5.7617188e-01   5.7617188e-01   5.7128906e-01   5.7128906e-01   5.7128906e-01   5.6640625e-01   5.6640625e-01   5.6152344e-01   5.6152344e-01   5.6152344e-01   5.5664062e-01   5.6152344e-01   5.6152344e-01   5.6640625e-01   5.7617188e-01   5.8105469e-01   5.9570312e-01   6.0058594e-01   6.1523438e-01   6.2011719e-01   6.2988281e-01   6.3476562e-01   6.4941406e-01   6.5429688e-01   6.6406250e-01   6.6894531e-01   6.7871094e-01   6.8359375e-01   6.8847656e-01   6.9335938e-01   6.9824219e-01   7.0800781e-01   7.0800781e-01   7.1289062e-01   7.1289062e-01   7.1777344e-01   7.1777344e-01   7.1777344e-01   7.1777344e-01   7.1777344e-01   7.1289062e-01   7.1289062e-01   7.1289062e-01   7.0800781e-01   7.0800781e-01   7.0800781e-01   7.0800781e-01   7.0312500e-01   7.0312500e-01   7.0312500e-01   6.9824219e-01   6.9824219e-01   6.9335938e-01   6.8847656e-01   6.8847656e-01   6.8847656e-01   6.8847656e-01   6.8359375e-01   6.7871094e-01   6.7871094e-01   6.7382812e-01   6.7382812e-01   6.6894531e-01   6.6894531e-01   6.6406250e-01   6.6406250e-01   6.5429688e-01   6.5429688e-01   6.4941406e-01   6.4941406e-01   6.4453125e-01   6.3964844e-01   6.3964844e-01   6.3476562e-01   6.3476562e-01   6.2988281e-01   6.2988281e-01   6.2500000e-01   6.2011719e-01   6.1523438e-01   6.1523438e-01   6.1035156e-01   6.1035156e-01   6.0546875e-01   6.0546875e-01   6.0546875e-01   6.0058594e-01   5.9570312e-01   5.9570312e-01   5.9570312e-01   5.9570312e-01   5.9570312e-01   5.9570312e-01   6.0058594e-01   6.0546875e-01   6.1035156e-01   6.1523438e-01   6.2500000e-01   6.2988281e-01   6.4453125e-01   6.4941406e-01   6.5917969e-01   6.6406250e-01   6.7382812e-01   6.8359375e-01   6.8847656e-01   6.9335938e-01   6.9824219e-01   7.0800781e-01   7.1289062e-01   7.1777344e-01   7.2265625e-01   7.2753906e-01   7.3242188e-01   7.3242188e-01   7.3730469e-01   7.3730469e-01   7.4218750e-01   7.4218750e-01   7.3730469e-01   7.3730469e-01   7.3730469e-01   7.3242188e-01   7.3242188e-01   7.2753906e-01   7.2265625e-01   7.2265625e-01   7.1289062e-01   7.1289062e-01   7.0800781e-01   7.0800781e-01   7.0312500e-01   6.9824219e-01   6.9824219e-01   6.9335938e-01   6.8847656e-01   6.8359375e-01   6.8359375e-01   6.7871094e-01   6.7382812e-01   6.6894531e-01   6.6894531e-01   6.6406250e-01   6.5917969e-01   6.5429688e-01   6.4941406e-01   6.4941406e-01   6.4453125e-01   6.3476562e-01   6.3476562e-01   6.2988281e-01   6.2988281e-01   6.2988281e-01   6.2011719e-01   6.2011719e-01   6.1523438e-01   6.1035156e-01   6.1035156e-01   6.0546875e-01   6.0546875e-01   6.0546875e-01   6.0058594e-01   5.9570312e-01   5.9570312e-01   5.9082031e-01   5.9082031e-01   5.8593750e-01   5.8593750e-01   5.8105469e-01   5.8105469e-01   5.7617188e-01   5.7617188e-01   5.7128906e-01   5.7128906e-01   5.7128906e-01   5.6640625e-01   5.6640625e-01   5.6640625e-01   5.6640625e-01   5.6640625e-01   5.6152344e-01   5.6152344e-01   5.5664062e-01   5.5664062e-01   5.6152344e-01   5.6152344e-01   5.6640625e-01   5.7128906e-01   5.8105469e-01   5.9082031e-01   6.0058594e-01   6.0546875e-01   6.2011719e-01   6.2988281e-01   6.3476562e-01   6.4453125e-01   6.5429688e-01   6.6406250e-01   6.6894531e-01   6.7871094e-01   6.8359375e-01   6.9335938e-01   6.9824219e-01   7.0312500e-01   7.0800781e-01   7.1289062e-01   7.1777344e-01   7.1777344e-01   7.2265625e-01   7.2265625e-01   7.2265625e-01   7.2265625e-01   7.2265625e-01   7.2265625e-01   7.1777344e-01   7.1289062e-01   7.1289062e-01   7.0800781e-01   7.0800781e-01   7.0312500e-01   6.9824219e-01   6.9824219e-01   6.9335938e-01   6.8847656e-01   6.8847656e-01   6.8359375e-01   6.8359375e-01   6.7871094e-01   6.7382812e-01   6.7382812e-01   6.6894531e-01   6.6406250e-01   6.5917969e-01   6.5429688e-01   6.5429688e-01   6.4941406e-01   6.4453125e-01   6.3964844e-01   6.3476562e-01   6.2988281e-01   6.2988281e-01   6.2011719e-01   6.2011719e-01   6.1523438e-01   6.1035156e-01   6.0546875e-01   6.0058594e-01   6.0058594e-01   5.9570312e-01   5.9082031e-01   5.9082031e-01   5.8593750e-01   5.8105469e-01   5.8105469e-01   5.7617188e-01   5.7617188e-01   5.7128906e-01   5.7128906e-01   5.7128906e-01   5.6640625e-01   5.6640625e-01   5.6640625e-01   5.6152344e-01   5.5664062e-01   5.6152344e-01   5.6152344e-01   5.5664062e-01   5.5664062e-01   5.5175781e-01   5.5175781e-01   5.5175781e-01   5.5175781e-01   5.5175781e-01   5.5175781e-01   5.5175781e-01   5.5175781e-01   5.5664062e-01   5.6152344e-01   5.6640625e-01   5.7128906e-01   5.8105469e-01   5.9082031e-01   6.0058594e-01   6.1035156e-01   6.1523438e-01   6.2500000e-01   6.2988281e-01   6.3964844e-01   6.4941406e-01   6.5429688e-01   6.5917969e-01   6.6406250e-01   6.6894531e-01   6.7382812e-01   6.7871094e-01   6.8359375e-01   6.8847656e-01   6.8847656e-01   6.9335938e-01   6.9335938e-01   6.9335938e-01   6.9335938e-01   6.9335938e-01   6.8847656e-01   6.8847656e-01   6.8359375e-01   6.8359375e-01   6.7871094e-01   6.7871094e-01   6.7382812e-01   6.7382812e-01   6.6894531e-01   6.6894531e-01   6.6406250e-01   6.6406250e-01   6.5917969e-01   6.5917969e-01   6.5429688e-01   6.5429688e-01   6.5429688e-01   6.4941406e-01   6.4941406e-01   6.4453125e-01   6.4941406e-01   6.4453125e-01   6.4453125e-01   6.3964844e-01   6.3964844e-01   6.3964844e-01   6.3476562e-01   6.3476562e-01   6.2988281e-01   6.2988281e-01   6.2988281e-01   6.2500000e-01   6.2500000e-01   6.2011719e-01   6.1523438e-01   6.1523438e-01   6.1523438e-01   6.1035156e-01   6.1035156e-01   6.1035156e-01   6.0546875e-01   6.0546875e-01   6.0058594e-01   6.0058594e-01   6.0058594e-01   5.9570312e-01   5.9570312e-01   5.9570312e-01   5.9570312e-01   5.9082031e-01   5.9082031e-01   5.9082031e-01   5.8593750e-01   5.8593750e-01   5.8105469e-01   5.8105469e-01   5.8105469e-01   5.7617188e-01   5.7617188e-01   5.7617188e-01   5.7128906e-01   5.7128906e-01   5.6640625e-01   5.6640625e-01   5.6640625e-01   5.7128906e-01   5.7128906e-01   5.7617188e-01   5.8105469e-01   5.9082031e-01   6.0058594e-01   6.0546875e-01   6.1523438e-01   6.2011719e-01   6.2988281e-01   6.3476562e-01   6.4453125e-01   6.4941406e-01   6.5917969e-01   6.5917969e-01   6.6406250e-01   6.6894531e-01   6.7382812e-01   6.7871094e-01   6.7871094e-01   6.8359375e-01   6.8359375e-01   6.8847656e-01   6.8359375e-01   6.8847656e-01   6.8847656e-01   6.8847656e-01   6.8359375e-01   6.7871094e-01   6.7871094e-01   6.7382812e-01   6.6894531e-01   6.6406250e-01   6.6406250e-01   6.5917969e-01   6.5429688e-01   6.4941406e-01   6.4453125e-01   6.3964844e-01   6.3964844e-01   6.3476562e-01   6.3476562e-01   6.2988281e-01   6.2988281e-01   6.2500000e-01   6.2500000e-01   6.2500000e-01   6.2500000e-01   6.2011719e-01   6.1523438e-01   6.1523438e-01   6.1035156e-01   6.1035156e-01   6.1035156e-01   6.0546875e-01   6.0546875e-01   6.0058594e-01   6.0058594e-01   6.0058594e-01   5.9570312e-01   5.9570312e-01   5.9082031e-01   5.9082031e-01   5.9082031e-01   5.8593750e-01   5.8593750e-01   5.8105469e-01   5.8105469e-01   5.8105469e-01   5.8105469e-01   5.7617188e-01   5.7617188e-01   5.7128906e-01   5.7128906e-01   5.7128906e-01   5.7128906e-01   5.7128906e-01   5.7128906e-01   5.7128906e-01   5.7128906e-01   5.7128906e-01   5.7128906e-01   5.7128906e-01   5.7617188e-01   5.8105469e-01   5.8105469e-01   5.9082031e-01   5.9570312e-01   6.0058594e-01   6.1523438e-01   6.2011719e-01   6.2500000e-01   6.3476562e-01   6.3964844e-01   6.4941406e-01   6.5917969e-01   6.6406250e-01   6.6894531e-01   6.7871094e-01   6.7871094e-01   6.8359375e-01   6.8847656e-01   6.9335938e-01   6.9824219e-01   6.9824219e-01   7.0312500e-01   7.0312500e-01   7.0800781e-01   7.0312500e-01   7.0312500e-01   7.0312500e-01   6.9824219e-01   6.9335938e-01   6.9335938e-01   6.8847656e-01   6.8359375e-01   6.7871094e-01   6.7382812e-01   6.7382812e-01   6.6894531e-01   6.6406250e-01   6.6406250e-01   6.5917969e-01   6.5429688e-01   6.5429688e-01   6.4941406e-01   6.4453125e-01   6.3964844e-01   6.3964844e-01   6.3476562e-01   6.2988281e-01   6.2988281e-01   6.2500000e-01   6.2011719e-01   6.2011719e-01   6.1523438e-01   6.1035156e-01   6.1035156e-01   6.0546875e-01   6.0546875e-01   6.0058594e-01   6.0058594e-01   5.9570312e-01   5.9082031e-01   5.9082031e-01   5.9082031e-01   5.8593750e-01   5.8105469e-01   5.8105469e-01   5.7617188e-01   5.7617188e-01   5.7617188e-01   5.7128906e-01   5.7128906e-01   5.6640625e-01   5.6640625e-01   5.6640625e-01   5.6152344e-01   5.6152344e-01   5.5664062e-01   5.5664062e-01   5.5175781e-01   5.5175781e-01   5.5175781e-01   5.5175781e-01   5.4687500e-01   5.4687500e-01   5.4687500e-01   5.4687500e-01   5.4199219e-01   5.4199219e-01   5.4199219e-01   5.4199219e-01   5.3710938e-01   5.3710938e-01   5.3710938e-01   5.3710938e-01   5.3710938e-01   5.4199219e-01   5.4687500e-01   5.5175781e-01   5.5664062e-01   5.6152344e-01   5.7128906e-01   5.7617188e-01   5.9082031e-01   5.9570312e-01   6.0058594e-01   6.1035156e-01   6.1523438e-01   6.2500000e-01   6.2988281e-01   6.3476562e-01   6.3964844e-01   6.4453125e-01   6.4941406e-01   6.5429688e-01   6.5429688e-01   6.5917969e-01   6.5917969e-01   6.6406250e-01   6.6406250e-01   6.6406250e-01   6.6406250e-01   6.6894531e-01   6.6406250e-01   6.6406250e-01   6.6406250e-01   6.5917969e-01   6.5917969e-01   6.5917969e-01   6.5429688e-01   6.5917969e-01   6.5917969e-01   6.5429688e-01   6.5917969e-01   6.5429688e-01   6.5917969e-01   6.5917969e-01   6.5917969e-01   6.5917969e-01   6.6406250e-01   6.5917969e-01   6.5917969e-01   6.5429688e-01   6.5429688e-01   6.4941406e-01   6.4941406e-01   6.4453125e-01   6.3476562e-01   6.3476562e-01   6.2988281e-01   6.2500000e-01   6.2011719e-01   6.2011719e-01   6.1523438e-01   6.1523438e-01   6.1035156e-01   6.1035156e-01   6.0546875e-01   6.0546875e-01   6.1035156e-01   6.0546875e-01   6.1035156e-01   6.1035156e-01   6.1035156e-01   6.1035156e-01   6.1035156e-01   6.1035156e-01   6.1035156e-01   6.1035156e-01   6.1523438e-01   6.1035156e-01   6.1035156e-01   6.1035156e-01   6.1035156e-01   6.0546875e-01   6.0546875e-01   6.0546875e-01   6.0546875e-01   6.0546875e-01   6.0058594e-01   6.0058594e-01   6.0058594e-01   6.0058594e-01   6.0058594e-01   6.0058594e-01   6.0546875e-01   6.0546875e-01   6.1035156e-01   6.1523438e-01   6.1523438e-01   6.2500000e-01   6.2988281e-01   6.3476562e-01   6.3964844e-01   6.4453125e-01   6.4941406e-01   6.5429688e-01   6.5917969e-01   6.6406250e-01   6.6894531e-01   6.7382812e-01   6.7871094e-01   6.7871094e-01   6.8359375e-01   6.9335938e-01   6.9335938e-01   6.9824219e-01   6.9824219e-01   7.0312500e-01   7.0312500e-01   7.0800781e-01   7.0800781e-01   7.0800781e-01   7.0800781e-01   7.0800781e-01   7.0800781e-01   7.0800781e-01   7.0312500e-01   7.0312500e-01   7.0312500e-01   7.0312500e-01   6.9824219e-01   6.9335938e-01   6.9335938e-01   6.8847656e-01   6.8847656e-01   6.8847656e-01   6.8359375e-01   6.8359375e-01   6.7871094e-01   6.7871094e-01   6.7871094e-01   6.7382812e-01   6.7382812e-01   6.7382812e-01   6.6894531e-01   6.6894531e-01   6.6894531e-01   6.6406250e-01   6.6406250e-01   6.5917969e-01   6.5917969e-01   6.5917969e-01   6.5429688e-01   6.5429688e-01   6.4941406e-01   6.4941406e-01   6.4453125e-01   6.3964844e-01   6.3964844e-01   6.3964844e-01   6.3476562e-01   6.3476562e-01   6.2988281e-01   6.2500000e-01   6.2500000e-01   6.2011719e-01   6.1523438e-01   6.1035156e-01   6.0546875e-01   6.0546875e-01   5.9570312e-01   5.9570312e-01   5.9082031e-01   5.8593750e-01   5.8105469e-01   5.7617188e-01   5.7128906e-01   5.6640625e-01   5.6152344e-01   5.5664062e-01   5.5175781e-01   5.5175781e-01   5.5175781e-01   5.5175781e-01   5.5175781e-01   5.5664062e-01   5.5664062e-01   5.5664062e-01   5.6152344e-01   5.6640625e-01   5.7128906e-01   5.7128906e-01   5.7617188e-01   5.8105469e-01   5.8593750e-01   5.8593750e-01   5.9082031e-01   5.9570312e-01   6.0058594e-01   6.0058594e-01   6.0058594e-01   6.0546875e-01   6.1035156e-01   6.1035156e-01   6.1035156e-01   6.1035156e-01   6.1035156e-01   6.1035156e-01   6.1035156e-01   6.0546875e-01   6.0546875e-01   6.0546875e-01   6.0058594e-01   6.0058594e-01   6.0058594e-01   5.9570312e-01   5.9570312e-01   5.9082031e-01   5.9082031e-01   5.9082031e-01   5.8593750e-01   5.8593750e-01   5.8105469e-01   5.8105469e-01   5.7617188e-01   5.7617188e-01   5.7617188e-01   5.7617188e-01   5.7617188e-01   5.7128906e-01   5.7128906e-01   5.7128906e-01   5.7128906e-01   5.7128906e-01   5.7128906e-01   5.6640625e-01   5.6640625e-01   5.6640625e-01   5.6640625e-01   5.6640625e-01   5.7128906e-01   5.6640625e-01   5.7128906e-01   5.7128906e-01   5.6640625e-01   5.7128906e-01   5.7128906e-01   5.7128906e-01   5.7128906e-01   5.7128906e-01   5.7128906e-01   5.7128906e-01   5.7128906e-01   5.7128906e-01   5.6640625e-01   5.6640625e-01   5.6640625e-01   5.6640625e-01   5.6152344e-01   5.6640625e-01   5.6152344e-01   5.6152344e-01   5.6152344e-01   5.6152344e-01   5.5664062e-01   5.6152344e-01   5.5664062e-01   5.5664062e-01   5.6152344e-01   5.6152344e-01   5.6152344e-01   5.6152344e-01   5.7128906e-01   5.7128906e-01   5.8105469e-01   5.8593750e-01   5.9082031e-01   5.9570312e-01   6.0058594e-01   6.0058594e-01   6.1035156e-01   6.1035156e-01   6.1035156e-01   6.1523438e-01   6.1523438e-01   6.2011719e-01   6.2011719e-01   6.2011719e-01   6.2011719e-01   6.2011719e-01   6.2011719e-01   6.2011719e-01   6.2011719e-01   6.1523438e-01   6.2011719e-01   6.1523438e-01   6.1035156e-01   6.1523438e-01   6.1035156e-01   6.1035156e-01   6.0546875e-01   6.0546875e-01   6.0546875e-01   6.0546875e-01   6.0546875e-01   6.0546875e-01   6.0546875e-01   6.0546875e-01   6.0546875e-01   6.0546875e-01   6.0546875e-01   6.0546875e-01   6.1035156e-01   6.0546875e-01   6.0546875e-01   6.0546875e-01   6.0546875e-01   6.0546875e-01   6.0546875e-01   6.0546875e-01   6.0546875e-01   6.0546875e-01   6.0546875e-01   6.0546875e-01   6.0546875e-01   6.0546875e-01   6.0546875e-01   6.0058594e-01   6.0058594e-01   6.0058594e-01   5.9570312e-01   5.9570312e-01   5.9082031e-01   5.9082031e-01   5.8593750e-01   5.8593750e-01   5.8593750e-01   5.8105469e-01   5.8105469e-01   5.7617188e-01   5.7617188e-01   5.7128906e-01   5.6640625e-01   5.6640625e-01   5.6152344e-01   5.6640625e-01   5.6152344e-01   5.6640625e-01   5.6640625e-01   5.7128906e-01   5.7128906e-01   5.7617188e-01   5.8105469e-01   5.8593750e-01   5.9570312e-01   6.0058594e-01   6.0546875e-01   6.1523438e-01   6.2011719e-01   6.2988281e-01   6.3476562e-01   6.3964844e-01   6.4453125e-01   6.4941406e-01   6.4941406e-01   6.5429688e-01   6.5429688e-01   6.5429688e-01   6.5429688e-01   6.4941406e-01   6.4941406e-01   6.4941406e-01   6.4941406e-01   6.4453125e-01   6.3964844e-01   6.3476562e-01   6.2988281e-01   6.2988281e-01   6.2500000e-01   6.2011719e-01   6.2011719e-01   6.1523438e-01   6.1523438e-01   6.1035156e-01   6.1035156e-01   6.0546875e-01   6.0546875e-01   6.0546875e-01   6.0058594e-01   6.0058594e-01   5.9570312e-01   5.9570312e-01   5.9082031e-01   5.9082031e-01   5.9082031e-01   5.9082031e-01   5.8593750e-01   5.8593750e-01   5.8593750e-01   5.8105469e-01   5.8105469e-01   5.8105469e-01   5.8105469e-01   5.8105469e-01   5.7617188e-01   5.8105469e-01   5.8105469e-01   5.7617188e-01   5.8105469e-01   5.8105469e-01   5.8105469e-01   5.8105469e-01   5.8105469e-01   5.8105469e-01   5.8105469e-01   5.8105469e-01   5.8105469e-01   5.8105469e-01   5.8105469e-01   5.8105469e-01   5.8105469e-01   5.8105469e-01   5.7617188e-01   5.8105469e-01   5.7617188e-01   5.7617188e-01   5.7617188e-01   5.8105469e-01   5.8105469e-01   5.8105469e-01   5.8105469e-01   5.8593750e-01   5.8593750e-01   5.9082031e-01   5.9570312e-01   5.9570312e-01   6.0058594e-01   6.0058594e-01   6.1035156e-01   6.1035156e-01   6.1523438e-01   6.2011719e-01   6.2011719e-01   6.2011719e-01   6.2011719e-01   6.2011719e-01   6.2500000e-01   6.2500000e-01   6.2500000e-01   6.2011719e-01   6.2011719e-01   6.2500000e-01   6.2011719e-01   6.2500000e-01   6.2011719e-01   6.2011719e-01   6.2011719e-01   6.1523438e-01   6.1523438e-01   6.1523438e-01   6.1523438e-01   6.1035156e-01   6.1035156e-01   6.1035156e-01   6.1035156e-01   6.1035156e-01   6.1035156e-01   6.1035156e-01   6.1035156e-01   6.1035156e-01   6.1035156e-01   6.1035156e-01   6.1035156e-01   6.1035156e-01   6.0546875e-01   6.0546875e-01   6.0058594e-01   5.9570312e-01   5.9570312e-01   5.9082031e-01   5.9082031e-01   5.8593750e-01   5.8593750e-01   5.8105469e-01   5.7617188e-01   5.7617188e-01   5.7128906e-01   5.6640625e-01   5.6640625e-01   5.6152344e-01   5.6152344e-01   5.5664062e-01   5.5664062e-01   5.5175781e-01   5.5175781e-01   5.5175781e-01   5.4687500e-01   5.4687500e-01   5.4687500e-01   5.4199219e-01   5.4199219e-01   5.4199219e-01   5.4199219e-01   5.4199219e-01   5.5175781e-01   5.5175781e-01   5.5664062e-01   5.6152344e-01   5.6640625e-01   5.7128906e-01   5.7617188e-01   5.8105469e-01   5.8593750e-01   5.8593750e-01   5.9082031e-01   5.9570312e-01   5.9570312e-01   6.0058594e-01   6.0058594e-01   6.0546875e-01   6.1035156e-01   6.1035156e-01   6.1523438e-01   6.1523438e-01   6.2011719e-01   6.2011719e-01   6.2011719e-01   6.2500000e-01   6.2500000e-01   6.2011719e-01   6.1523438e-01   6.2011719e-01   6.1523438e-01   6.1523438e-01   6.1035156e-01   6.1035156e-01   6.1035156e-01   6.0546875e-01   6.0546875e-01   6.0546875e-01   6.0058594e-01   6.0058594e-01   6.0058594e-01   6.0058594e-01   6.0058594e-01   5.9570312e-01   6.0058594e-01   5.9570312e-01   5.9570312e-01   5.9570312e-01   5.9570312e-01   5.9570312e-01   5.9082031e-01   5.8593750e-01   5.9082031e-01   5.8593750e-01   5.8593750e-01   5.8593750e-01   5.8105469e-01   5.8105469e-01   5.8105469e-01   5.7617188e-01   5.7617188e-01   5.7128906e-01   5.7128906e-01   5.7128906e-01   5.7128906e-01   5.6640625e-01   5.6640625e-01   5.6152344e-01   5.6152344e-01   5.6152344e-01   5.6152344e-01   5.6152344e-01   5.5664062e-01   5.6152344e-01   5.6152344e-01   5.6640625e-01   5.7128906e-01   5.7617188e-01   5.8105469e-01   5.9082031e-01   5.9082031e-01   6.0058594e-01   6.0546875e-01   6.1523438e-01   6.1523438e-01   6.2500000e-01   6.2988281e-01   6.2988281e-01   6.3964844e-01   6.4453125e-01   6.4453125e-01   6.4941406e-01   6.4941406e-01   6.5429688e-01   6.5429688e-01   6.5917969e-01   6.5917969e-01   6.5917969e-01   6.5917969e-01   6.5917969e-01   6.5917969e-01   6.5917969e-01   6.5429688e-01   6.5429688e-01   6.4941406e-01   6.4941406e-01   6.4453125e-01   6.4453125e-01   6.3964844e-01   6.3964844e-01   6.3476562e-01   6.3476562e-01   6.2988281e-01   6.2988281e-01   6.2988281e-01   6.2988281e-01   6.2988281e-01   6.2500000e-01   6.2011719e-01   6.2011719e-01   6.2011719e-01   6.2011719e-01   6.2011719e-01   6.1523438e-01   6.1523438e-01   6.1523438e-01   6.1035156e-01   6.1035156e-01   6.1035156e-01   6.0546875e-01   6.0546875e-01   6.0058594e-01   6.0058594e-01   5.9570312e-01   5.9570312e-01   5.9570312e-01   5.9082031e-01   5.9082031e-01   5.8593750e-01   5.8593750e-01   5.8593750e-01   5.8593750e-01   5.8593750e-01   5.8105469e-01   5.8105469e-01   5.8105469e-01   5.8105469e-01   5.7617188e-01   5.7617188e-01   5.7617188e-01   5.7617188e-01   5.7617188e-01   5.8105469e-01   5.8105469e-01   5.8593750e-01   5.9082031e-01   5.9570312e-01   6.0546875e-01   6.1523438e-01   6.2011719e-01   6.2988281e-01   6.2988281e-01   6.3964844e-01   6.4453125e-01   6.4941406e-01   6.4941406e-01   6.5917969e-01   6.6406250e-01   6.6406250e-01   6.6894531e-01   6.7382812e-01   6.7382812e-01   6.7871094e-01   6.7871094e-01   6.7871094e-01   6.7871094e-01   6.8359375e-01   6.8359375e-01   6.8359375e-01   6.8359375e-01   6.7871094e-01   6.7871094e-01   6.7382812e-01   6.7382812e-01   6.7382812e-01   6.6894531e-01   6.6406250e-01   6.5917969e-01   6.5917969e-01   6.5429688e-01   6.5429688e-01   6.4941406e-01   6.4941406e-01   6.4453125e-01   6.4453125e-01   6.3964844e-01   6.3964844e-01   6.3476562e-01   6.3476562e-01   6.3476562e-01   6.2988281e-01   6.2988281e-01   6.2500000e-01   6.2500000e-01   6.2011719e-01   6.2011719e-01   6.1523438e-01   6.1035156e-01   6.1035156e-01   6.1035156e-01   6.0546875e-01   6.0546875e-01   6.0058594e-01   5.9570312e-01   5.9570312e-01   5.9082031e-01   5.9082031e-01   5.8593750e-01   5.8593750e-01   5.8105469e-01   5.8105469e-01   5.8105469e-01   5.8105469e-01   5.7617188e-01   5.7617188e-01   5.7128906e-01   5.7128906e-01   5.7617188e-01   5.7617188e-01   5.7128906e-01   5.7128906e-01   5.7128906e-01   5.7128906e-01   5.7128906e-01   5.7128906e-01   5.7617188e-01   5.8105469e-01   5.8593750e-01   5.9570312e-01   6.0058594e-01   6.0546875e-01   6.1523438e-01   6.2011719e-01   6.3476562e-01   6.3964844e-01   6.4453125e-01   6.4941406e-01   6.5917969e-01   6.5917969e-01   6.6894531e-01   6.6894531e-01   6.7382812e-01   6.7871094e-01   6.8359375e-01   6.8359375e-01   6.8359375e-01   6.8847656e-01   6.8847656e-01   6.8847656e-01   6.8847656e-01   6.8359375e-01   6.8359375e-01   6.8359375e-01   6.7871094e-01   6.7382812e-01   6.7382812e-01   6.6894531e-01   6.6894531e-01   6.6406250e-01   6.6406250e-01   6.5917969e-01   6.5429688e-01   6.5429688e-01   6.5429688e-01   6.4941406e-01   6.4941406e-01   6.4453125e-01   6.3964844e-01   6.3964844e-01   6.3476562e-01   6.2988281e-01   6.2988281e-01   6.2988281e-01   6.2500000e-01   6.2011719e-01   6.1523438e-01   6.2011719e-01   6.1523438e-01   6.1035156e-01   6.1523438e-01   6.0546875e-01   6.0546875e-01   6.0546875e-01   5.9570312e-01   5.9570312e-01   5.9082031e-01   5.9082031e-01   5.9082031e-01   5.8593750e-01   5.8593750e-01   5.8593750e-01   5.8105469e-01   5.8105469e-01   5.8105469e-01   5.7617188e-01   5.7617188e-01   5.7128906e-01   5.7128906e-01   5.7128906e-01   5.7128906e-01   5.6640625e-01   5.6152344e-01   5.5664062e-01   5.5664062e-01   5.5664062e-01   5.5664062e-01   5.5664062e-01   5.5664062e-01   5.6152344e-01   5.6640625e-01   5.7128906e-01   5.8105469e-01   5.8105469e-01   5.9570312e-01   6.0058594e-01   6.0546875e-01   6.1523438e-01   6.2011719e-01   6.2988281e-01   6.3476562e-01   6.3964844e-01   6.4453125e-01   6.4941406e-01   6.5429688e-01   6.5917969e-01   6.5917969e-01   6.6406250e-01   6.6406250e-01   6.6406250e-01   6.6894531e-01   6.6894531e-01   6.6894531e-01   6.6894531e-01   6.6894531e-01   6.6406250e-01   6.6406250e-01   6.5917969e-01   6.5917969e-01   6.5917969e-01   6.5429688e-01   6.4941406e-01   6.4453125e-01   6.4453125e-01   6.4453125e-01   6.3964844e-01   6.3476562e-01   6.3476562e-01   6.2988281e-01   6.2988281e-01   6.2988281e-01   6.2500000e-01   6.2011719e-01   6.2011719e-01   6.2011719e-01   6.1523438e-01   6.1035156e-01   6.1035156e-01   6.0546875e-01   6.0546875e-01   6.0546875e-01   6.0058594e-01   6.0058594e-01   5.9570312e-01   5.9570312e-01   5.9082031e-01   5.9082031e-01   5.8593750e-01   5.8593750e-01   5.8593750e-01   5.8105469e-01   5.7617188e-01   5.7617188e-01   5.7617188e-01   5.7617188e-01   5.7128906e-01   5.7128906e-01   5.6640625e-01   5.6640625e-01   5.6152344e-01   5.6152344e-01   5.6152344e-01   5.5664062e-01   5.5664062e-01   5.5175781e-01   5.5175781e-01   5.5175781e-01   5.5175781e-01   5.5175781e-01   5.5175781e-01   5.5175781e-01   5.5664062e-01   5.6152344e-01   5.6152344e-01   5.7128906e-01   5.7617188e-01   5.8593750e-01   5.9570312e-01   6.0058594e-01   6.1035156e-01   6.2011719e-01   6.2500000e-01   6.2988281e-01   6.3964844e-01   6.4453125e-01   6.4941406e-01   6.5429688e-01   6.5917969e-01   6.6406250e-01   6.6406250e-01   6.6894531e-01   6.6894531e-01   6.7382812e-01   6.7382812e-01   6.7382812e-01   6.7382812e-01   6.6894531e-01   6.6894531e-01   6.6894531e-01   6.6894531e-01   6.6406250e-01   6.5917969e-01   6.5429688e-01   6.5429688e-01   6.4941406e-01   6.4941406e-01   6.4453125e-01   6.4453125e-01   6.3964844e-01   6.3964844e-01   6.3476562e-01   6.3476562e-01   6.3476562e-01   6.2988281e-01   6.2988281e-01   6.2500000e-01   6.2500000e-01   6.2011719e-01   6.1523438e-01   6.1523438e-01   6.1035156e-01   6.1035156e-01   6.0546875e-01   6.0546875e-01   6.0546875e-01   6.0546875e-01   6.0058594e-01   5.9570312e-01   5.9570312e-01   5.9570312e-01   5.9082031e-01   5.8593750e-01   5.8593750e-01   5.8105469e-01   5.8105469e-01   5.8105469e-01   5.8105469e-01   5.7617188e-01   5.7617188e-01   5.7617188e-01   5.7128906e-01   5.7128906e-01   5.7128906e-01   5.7128906e-01   5.6640625e-01   5.6640625e-01   5.6152344e-01   5.6152344e-01   5.6152344e-01   5.6152344e-01   5.5664062e-01   5.6152344e-01   5.6152344e-01   5.6152344e-01   5.6640625e-01   5.7128906e-01   5.7617188e-01   5.8593750e-01   5.9082031e-01   6.0058594e-01   6.1035156e-01   6.1523438e-01   6.2500000e-01   6.2988281e-01   6.3476562e-01   6.3964844e-01   6.4453125e-01   6.5429688e-01   6.5917969e-01   6.6406250e-01   6.6894531e-01   6.6894531e-01   6.7382812e-01   6.7871094e-01   6.7871094e-01   6.7871094e-01   6.7871094e-01   6.7871094e-01   6.7871094e-01   6.7871094e-01   6.7382812e-01   6.7382812e-01   6.7382812e-01   6.6894531e-01   6.6894531e-01   6.6894531e-01   6.6406250e-01   6.5917969e-01   6.5917969e-01   6.5917969e-01   6.5429688e-01   6.5917969e-01   6.5429688e-01   6.5429688e-01   6.5429688e-01   6.5429688e-01   6.5429688e-01   6.5429688e-01   6.5429688e-01   6.5429688e-01   6.5429688e-01   6.5429688e-01   6.5429688e-01   6.5429688e-01   6.5429688e-01   6.4941406e-01   6.4941406e-01   6.4941406e-01   6.4941406e-01   6.5429688e-01   6.4941406e-01   6.4941406e-01   6.4941406e-01   6.4941406e-01   6.4941406e-01   6.4453125e-01   6.4453125e-01   6.4453125e-01   6.4453125e-01   6.3964844e-01   6.4453125e-01   6.3964844e-01   6.3964844e-01   6.4453125e-01   6.3964844e-01   6.3964844e-01   6.3964844e-01   6.3964844e-01   6.3964844e-01   6.3964844e-01   6.3964844e-01   6.3964844e-01   6.4453125e-01   6.4453125e-01   6.4941406e-01   6.5429688e-01   6.5429688e-01   6.5917969e-01   6.6406250e-01   6.6894531e-01   6.7382812e-01   6.7871094e-01   6.8359375e-01   6.8847656e-01   6.9824219e-01   6.9824219e-01   7.0312500e-01   7.0800781e-01   7.1289062e-01   7.1289062e-01   7.1777344e-01   7.2265625e-01   7.2265625e-01   7.2265625e-01   7.2753906e-01   7.2753906e-01   7.2265625e-01   7.2753906e-01   7.2265625e-01   7.1777344e-01   7.1777344e-01   7.1289062e-01   7.0800781e-01   7.0800781e-01   7.0312500e-01   6.9824219e-01   6.9824219e-01   6.9335938e-01   6.8847656e-01   6.8359375e-01   6.8359375e-01   6.8359375e-01   6.7871094e-01   6.7382812e-01   6.7382812e-01   6.7382812e-01   6.7382812e-01   6.6894531e-01   6.6894531e-01   6.6894531e-01   6.6406250e-01   6.6406250e-01   6.5917969e-01   6.5917969e-01   6.5429688e-01   6.4941406e-01   6.4453125e-01   6.3964844e-01   6.3476562e-01   6.2988281e-01   6.2500000e-01   6.2011719e-01   6.1035156e-01   6.0546875e-01   5.9570312e-01   5.9082031e-01   5.8105469e-01   5.7617188e-01   5.7128906e-01   5.6640625e-01   5.6152344e-01   5.5664062e-01   5.5175781e-01   5.4687500e-01   5.4199219e-01   5.4199219e-01   5.3710938e-01   5.3222656e-01   5.3222656e-01   5.3222656e-01   5.2734375e-01   5.2734375e-01   5.2734375e-01   5.2734375e-01   5.3222656e-01   5.3222656e-01   5.3710938e-01   5.4199219e-01   5.5175781e-01   5.5175781e-01   5.5664062e-01   5.7128906e-01   5.7128906e-01   5.7617188e-01   5.8593750e-01   5.8593750e-01   5.9570312e-01   6.0058594e-01   6.0058594e-01   6.1035156e-01   6.1035156e-01   6.1523438e-01   6.2011719e-01   6.2011719e-01   6.2500000e-01   6.2988281e-01   6.2988281e-01   6.2988281e-01   6.2988281e-01   6.2988281e-01   6.2988281e-01   6.2988281e-01   6.2988281e-01   6.2988281e-01   6.2500000e-01   6.2500000e-01   6.2011719e-01   6.2500000e-01   6.2500000e-01   6.2500000e-01   6.2500000e-01   6.2500000e-01   6.2500000e-01   6.2500000e-01   6.2500000e-01   6.2500000e-01   6.2500000e-01   6.2011719e-01   6.2011719e-01   6.1523438e-01   6.1523438e-01   6.1035156e-01   6.1035156e-01   6.0546875e-01   6.0058594e-01   6.0058594e-01   5.9570312e-01   5.9082031e-01   5.8593750e-01   5.8105469e-01   5.7617188e-01   5.7128906e-01   5.6640625e-01   5.6152344e-01   5.6152344e-01   5.5175781e-01   5.5175781e-01   5.5175781e-01   5.4687500e-01   5.4687500e-01   5.4199219e-01   5.4199219e-01   5.3710938e-01   5.3222656e-01   5.3222656e-01   5.2734375e-01   5.2734375e-01   5.2246094e-01   5.2246094e-01   5.1757812e-01   5.1757812e-01   5.1757812e-01   5.1757812e-01   5.2246094e-01   5.2246094e-01   5.3222656e-01   5.3710938e-01   5.4687500e-01   5.5664062e-01   5.6152344e-01   5.6640625e-01   5.7617188e-01   5.8105469e-01   5.8593750e-01   5.9082031e-01   5.9570312e-01   6.0058594e-01   6.0546875e-01   6.0546875e-01   6.1035156e-01   6.1035156e-01   6.1035156e-01   6.1035156e-01   6.1035156e-01   6.1035156e-01   6.0546875e-01   6.0546875e-01   6.0546875e-01   6.0058594e-01   6.0058594e-01   5.9570312e-01   5.9082031e-01   5.9082031e-01   5.8593750e-01   5.8593750e-01   5.8593750e-01   5.8105469e-01   5.8105469e-01   5.8105469e-01   5.7617188e-01   5.7617188e-01   5.7128906e-01   5.7128906e-01   5.7128906e-01   5.7128906e-01   5.7128906e-01   5.6640625e-01   5.6640625e-01   5.6152344e-01   5.6152344e-01   5.6152344e-01   5.6152344e-01   5.5664062e-01   5.5664062e-01   5.5175781e-01   5.5175781e-01   5.4687500e-01   5.4687500e-01   5.4687500e-01   5.4199219e-01   5.4199219e-01   5.4199219e-01   5.4199219e-01   5.4199219e-01   5.3710938e-01   5.3710938e-01   5.3710938e-01   5.3710938e-01   5.3710938e-01   5.3710938e-01   5.3222656e-01   5.3222656e-01   5.3222656e-01   5.3222656e-01   5.3222656e-01   5.3222656e-01   5.3222656e-01   5.3222656e-01   5.3710938e-01   5.3710938e-01   5.4687500e-01   5.5175781e-01   5.5664062e-01   5.6640625e-01   5.7617188e-01   5.8593750e-01   5.9082031e-01   5.9570312e-01   6.0546875e-01   6.1035156e-01   6.1523438e-01   6.2011719e-01   6.2011719e-01   6.2988281e-01   6.2988281e-01   6.2988281e-01   6.2988281e-01   6.2988281e-01   6.2988281e-01   6.2988281e-01   6.2500000e-01   6.2011719e-01   6.2011719e-01   6.1523438e-01   6.1523438e-01   6.1035156e-01   6.1035156e-01   6.0546875e-01   6.0546875e-01   6.0546875e-01   6.0546875e-01   6.0546875e-01   6.0546875e-01   6.0546875e-01   6.0546875e-01   6.0546875e-01   6.0058594e-01   6.0058594e-01   6.0058594e-01   6.0058594e-01   6.0058594e-01   5.9570312e-01   5.9570312e-01   5.9570312e-01   5.9570312e-01   5.9570312e-01   5.9082031e-01   5.9082031e-01   5.9082031e-01   5.8593750e-01   5.8593750e-01   5.8105469e-01   5.8105469e-01   5.7617188e-01   5.7617188e-01   5.7617188e-01   5.7617188e-01   5.7128906e-01   5.7128906e-01   5.6640625e-01   5.6640625e-01   5.6640625e-01   5.6152344e-01   5.6152344e-01   5.6152344e-01   5.5664062e-01   5.5664062e-01   5.5664062e-01   5.5664062e-01   5.5664062e-01   5.5175781e-01   5.5664062e-01   5.6152344e-01   5.6152344e-01   5.7128906e-01   5.8105469e-01   5.8593750e-01   5.9570312e-01   6.0058594e-01   6.1035156e-01   6.2011719e-01   6.2988281e-01   6.3476562e-01   6.3964844e-01   6.4453125e-01   6.5429688e-01   6.5917969e-01   6.5917969e-01   6.6406250e-01   6.6894531e-01   6.6894531e-01   6.6894531e-01   6.7382812e-01   6.7382812e-01   6.7382812e-01   6.7382812e-01   6.6894531e-01   6.6894531e-01   6.6406250e-01   6.6406250e-01   6.5917969e-01   6.5917969e-01   6.5429688e-01   6.5429688e-01   6.5429688e-01   6.4941406e-01   6.4941406e-01   6.4941406e-01   6.4453125e-01   6.4453125e-01   6.4453125e-01   6.4453125e-01   6.4453125e-01   6.3964844e-01   6.3964844e-01   6.3476562e-01   6.3476562e-01   6.2988281e-01   6.2988281e-01   6.2988281e-01   6.2988281e-01   6.2500000e-01   6.2500000e-01   6.2011719e-01   6.2011719e-01   6.2011719e-01   6.2011719e-01   6.1523438e-01   6.1523438e-01   6.1523438e-01   6.1035156e-01   6.1035156e-01   6.1035156e-01   6.0546875e-01   6.0546875e-01   6.0546875e-01   6.0546875e-01   6.0058594e-01   6.0058594e-01   6.0058594e-01   5.9570312e-01   5.9570312e-01   5.9082031e-01   5.9082031e-01   5.8593750e-01   5.9082031e-01   5.9082031e-01   5.8593750e-01   5.9082031e-01   5.9082031e-01   6.0058594e-01   6.0546875e-01   6.1035156e-01   6.2011719e-01   6.2988281e-01   6.3964844e-01   6.4941406e-01   6.5429688e-01   6.6894531e-01   6.7871094e-01   6.8847656e-01   6.8847656e-01   7.0312500e-01   7.0800781e-01   7.0800781e-01   7.1289062e-01   7.1777344e-01   7.1777344e-01   7.2265625e-01   7.2753906e-01   7.2753906e-01   7.2753906e-01   7.3242188e-01   7.3242188e-01   7.3242188e-01   7.3242188e-01   7.2753906e-01   7.2753906e-01   7.2753906e-01   7.2265625e-01   7.1777344e-01   7.1777344e-01   7.1289062e-01   7.1289062e-01   7.1289062e-01   7.0800781e-01   7.0800781e-01   7.0312500e-01   7.0312500e-01   7.0312500e-01   6.9824219e-01   6.9824219e-01   6.9335938e-01   6.9335938e-01   6.8847656e-01   6.8847656e-01   6.8847656e-01   6.8359375e-01   6.7871094e-01   6.7871094e-01   6.7382812e-01   6.7382812e-01   6.6894531e-01   6.6894531e-01   6.6406250e-01   6.6406250e-01   6.5917969e-01   6.5429688e-01   6.5429688e-01   6.5429688e-01   6.4941406e-01   6.4453125e-01   6.4453125e-01   6.3964844e-01   6.3964844e-01   6.3476562e-01   6.3476562e-01   6.2988281e-01   6.2988281e-01   6.2988281e-01   6.2500000e-01   6.2011719e-01   6.1523438e-01   6.1035156e-01   6.1035156e-01   6.0546875e-01   6.0546875e-01   6.0058594e-01   6.0058594e-01   6.0058594e-01   6.0546875e-01   6.1035156e-01   6.1523438e-01   6.2500000e-01   6.3476562e-01   6.4453125e-01   6.4941406e-01   6.5917969e-01   6.6894531e-01   6.7871094e-01   6.8847656e-01   6.9824219e-01   7.0312500e-01   7.1289062e-01   7.1777344e-01   7.2265625e-01   7.2753906e-01   7.3242188e-01   7.3730469e-01   7.3730469e-01   7.4218750e-01   7.4218750e-01   7.4707031e-01   7.4707031e-01   7.4707031e-01   7.4707031e-01   7.4707031e-01   7.4218750e-01   7.4218750e-01   7.3730469e-01   7.3242188e-01   7.2753906e-01   7.2265625e-01   7.2265625e-01   7.1777344e-01   7.1289062e-01   7.0800781e-01   7.0800781e-01   7.0312500e-01   6.9824219e-01   6.9335938e-01   6.9335938e-01   6.8847656e-01   6.8847656e-01   6.8359375e-01   6.7871094e-01   6.7382812e-01   6.7382812e-01   6.6894531e-01   6.6894531e-01   6.6406250e-01   6.6406250e-01   6.5917969e-01   6.5429688e-01   6.5429688e-01   6.4941406e-01   6.4453125e-01   6.4453125e-01   6.3964844e-01   6.3964844e-01   6.3964844e-01   6.3476562e-01   6.3476562e-01   6.2988281e-01   6.2500000e-01   6.2500000e-01   6.2011719e-01   6.2011719e-01   6.2011719e-01   6.1523438e-01   6.1523438e-01   6.1035156e-01   6.1035156e-01   6.0546875e-01   6.0546875e-01   6.0546875e-01   6.0058594e-01   6.0058594e-01   5.9570312e-01   5.9570312e-01   5.9570312e-01   5.9082031e-01   5.8593750e-01   5.8593750e-01   5.8593750e-01   5.8593750e-01   5.8593750e-01   5.9082031e-01   5.9082031e-01   6.0058594e-01   6.0058594e-01   6.1035156e-01   6.2011719e-01   6.2988281e-01   6.3964844e-01   6.4941406e-01   6.5917969e-01   6.6894531e-01   6.7382812e-01   6.8847656e-01   6.9335938e-01   6.9824219e-01   7.0800781e-01   7.1777344e-01   7.1777344e-01   7.2753906e-01   7.3242188e-01   7.3730469e-01   7.4218750e-01   7.4218750e-01   7.4707031e-01   7.5195312e-01   7.5195312e-01   7.5195312e-01   7.4707031e-01   7.4707031e-01   7.4707031e-01   7.4707031e-01   7.4218750e-01   7.3730469e-01   7.3242188e-01   7.3242188e-01   7.2753906e-01   7.2753906e-01   7.2265625e-01   7.2265625e-01   7.1777344e-01   7.1777344e-01   7.1777344e-01   7.1289062e-01   7.0800781e-01   7.0800781e-01   7.0312500e-01   7.0312500e-01   6.9824219e-01   6.9335938e-01   6.9335938e-01   6.8847656e-01   6.8359375e-01   6.7871094e-01   6.7382812e-01   6.7382812e-01   6.6894531e-01   6.6406250e-01   6.5917969e-01   6.5429688e-01   6.4941406e-01   6.4453125e-01   6.3964844e-01   6.3964844e-01   6.3476562e-01   6.2988281e-01   6.2500000e-01   6.2500000e-01   6.1523438e-01   6.1523438e-01   6.1035156e-01   6.0546875e-01   6.0546875e-01   5.9570312e-01   5.9082031e-01   5.8593750e-01   5.8105469e-01   5.7617188e-01   5.7128906e-01   5.6640625e-01   5.6152344e-01   5.5664062e-01   5.5175781e-01   5.5175781e-01   5.4687500e-01   5.4199219e-01   5.4199219e-01   5.3710938e-01   5.4199219e-01   5.4199219e-01   5.4199219e-01   5.5175781e-01   5.5664062e-01   5.6640625e-01   5.7128906e-01   5.8105469e-01   5.9082031e-01   6.0058594e-01   6.1035156e-01   6.2011719e-01   6.2988281e-01   6.3476562e-01   6.3964844e-01   6.4941406e-01   6.5429688e-01   6.5917969e-01   6.6894531e-01   6.6894531e-01   6.7382812e-01   6.7871094e-01   6.8359375e-01   6.8359375e-01   6.8359375e-01   6.8359375e-01   6.8359375e-01   6.8359375e-01   6.7871094e-01   6.7871094e-01   6.7382812e-01   6.6894531e-01   6.6406250e-01   6.5917969e-01   6.5429688e-01   6.4941406e-01   6.4453125e-01   6.3964844e-01   6.3476562e-01   6.3476562e-01   6.2988281e-01   6.2988281e-01   6.2500000e-01   6.2011719e-01   6.1523438e-01   6.1523438e-01   6.1035156e-01   6.1035156e-01   6.1035156e-01   6.0546875e-01   6.0058594e-01   6.0058594e-01   6.0058594e-01   5.9570312e-01   5.9082031e-01   5.9082031e-01   5.8593750e-01   5.8105469e-01   5.8105469e-01   5.8105469e-01   5.7617188e-01   5.7617188e-01   5.7128906e-01   5.7128906e-01   5.7128906e-01   5.7128906e-01   5.6640625e-01   5.6152344e-01   5.6152344e-01   5.6152344e-01   5.6152344e-01   5.5664062e-01   5.6152344e-01   5.5664062e-01   5.5664062e-01   5.5664062e-01   5.5664062e-01   5.5664062e-01   5.5175781e-01   5.5664062e-01   5.5664062e-01   5.5664062e-01   5.5664062e-01   5.5664062e-01   